# time_tab [s], number_e [$\#$], Ek_e [eV], qV_e [eV], number_i [$\#$], Ek_i [eV], qV_i [eV]
0.000000000000000000e+00 4.999998000000000000e+06 7.493380180295511475e+11 -1.988159248925993729e+10 4.999998000000000000e+06 1.937697294934133911e+10 -1.939874575182682037e+10
2.500000000000000052e-09 4.991641000000000000e+06 7.476763581278636475e+11 -1.987145015223107910e+10 4.999961000000000000e+06 1.937677757632844925e+10 -1.939877756525912476e+10
5.000000000000000105e-09 4.983283000000000000e+06 7.460326823208582764e+11 -1.928156639031306076e+10 4.999931000000000000e+06 1.937663710611103821e+10 -1.881970955102087402e+10
7.500000000000000984e-09 4.975031000000000000e+06 7.443921830290501709e+11 -1.724613172827807617e+10 4.999902000000000000e+06 1.937648664725757980e+10 -1.679793474243526649e+10
1.000000000000000021e-08 4.966777000000000000e+06 7.427800401214855957e+11 -1.380820685635036278e+10 4.999870000000000000e+06 1.937634864942899704e+10 -1.337074686335609627e+10
1.249999999999999943e-08 4.958684000000000000e+06 7.411863693001822510e+11 -9.041982904809179306e+09 4.999841000000000000e+06 1.937622683907481003e+10 -8.607162206181596756e+09
1.500000000000000197e-08 4.950725000000000000e+06 7.395789001388618164e+11 -3.001476165787289619e+09 4.999808000000000000e+06 1.937610957554932404e+10 -2.557058070797417164e+09
1.750000000000000119e-08 4.942918000000000000e+06 7.380133335149895020e+11 4.233010982689332962e+09 4.999773000000000000e+06 1.937594872308756638e+10 4.702253385250737190e+09
2.000000000000000042e-08 4.935207000000000000e+06 7.364577177308854980e+11 1.255354506049541092e+10 4.999740000000000000e+06 1.937584110296721649e+10 1.306553665205888176e+10
2.249999999999999964e-08 4.927770000000000000e+06 7.349079182628123779e+11 2.185148159252676010e+10 4.999710000000000000e+06 1.937573938345813370e+10 2.242558463576147842e+10
2.499999999999999887e-08 4.920477000000000000e+06 7.333951183932387695e+11 3.199935369864445496e+10 4.999684000000000000e+06 1.937566623471497726e+10 3.265688833825162125e+10
2.750000000000000140e-08 4.913297000000000000e+06 7.318822290096175537e+11 4.286333616944734192e+10 4.999652000000000000e+06 1.937552132308327866e+10 4.362661322926952362e+10
3.000000000000000394e-08 4.906371000000000000e+06 7.303996847506158447e+11 5.430637418270717621e+10 4.999617000000000000e+06 1.937539633611119461e+10 5.519711563094251251e+10
3.249999999999999985e-08 4.899776000000000000e+06 7.289856053250865479e+11 6.618842200222095490e+10 4.999581000000000000e+06 1.937528046811694336e+10 6.722666331650559998e+10
3.500000000000000239e-08 4.893225000000000000e+06 7.275410188455905762e+11 7.837506240127867126e+10 4.999558000000000000e+06 1.937523082068160629e+10 7.957913544340594482e+10
3.749999999999999830e-08 4.886992000000000000e+06 7.261548082652590332e+11 9.069909708993920898e+10 4.999513000000000000e+06 1.937510179419512939e+10 9.208571987612538147e+10
4.000000000000000084e-08 4.880899000000000000e+06 7.247680879793652344e+11 1.030192321915822144e+11 4.999466000000000000e+06 1.937497207227936554e+10 1.046018894728403168e+11
4.250000000000000337e-08 4.875160000000000000e+06 7.234618102599052734e+11 1.151956581548565521e+11 4.999436000000000000e+06 1.937497107264815903e+10 1.169844263055316467e+11
4.499999999999999929e-08 4.869687000000000000e+06 7.222190258065700684e+11 1.270829934470229492e+11 4.999402000000000000e+06 1.937497294850804901e+10 1.290857592129815826e+11
4.750000000000000182e-08 4.864270000000000000e+06 7.209688251484252930e+11 1.385675012672060547e+11 4.999360000000000000e+06 1.937493982052448273e+10 1.407893941838793335e+11
4.999999999999999774e-08 4.859193000000000000e+06 7.197942713284462891e+11 1.495159547548846436e+11 4.999334000000000000e+06 1.937505286550645065e+10 1.519586211330908813e+11
5.250000000000000027e-08 4.854380000000000000e+06 7.186737666194644775e+11 1.598199072230803833e+11 4.999297000000000000e+06 1.937510296471350479e+10 1.624818341584161377e+11
5.500000000000000281e-08 4.849703000000000000e+06 7.175987731514128418e+11 1.693799270611760559e+11 4.999261000000000000e+06 1.937523720750235748e+10 1.722569755902387695e+11
5.749999999999999872e-08 4.845228000000000000e+06 7.165530298028710938e+11 1.781107815835254822e+11 4.999230000000000000e+06 1.937544374975891876e+10 1.811963204278564148e+11
6.000000000000000787e-08 4.841029000000000000e+06 7.155728453369687500e+11 1.859366717212183838e+11 4.999179000000000000e+06 1.937556948537252808e+10 1.892222929729025269e+11
6.249999999999999717e-08 4.837006000000000000e+06 7.146536135888173828e+11 1.928153193340957947e+11 4.999142000000000000e+06 1.937581801294004440e+10 1.962902599636140137e+11
6.499999999999999971e-08 4.833162000000000000e+06 7.137732353228940430e+11 1.986899906159431763e+11 4.999110000000000000e+06 1.937617734249420166e+10 2.023420118393097229e+11
6.750000000000000224e-08 4.829462000000000000e+06 7.129365020302943115e+11 2.035362500207224426e+11 4.999061000000000000e+06 1.937642686319047928e+10 2.073530515364125671e+11
7.000000000000000477e-08 4.826029000000000000e+06 7.121773322890847168e+11 2.073355502865417175e+11 4.999026000000000000e+06 1.937685354837672424e+10 2.113045555904108887e+11
7.250000000000000731e-08 4.822839000000000000e+06 7.114633063510942383e+11 2.101012265637055969e+11 4.998985000000000000e+06 1.937727749357541656e+10 2.142099004593013000e+11
7.499999999999999661e-08 4.819815000000000000e+06 7.107966475704187012e+11 2.118679423021570435e+11 4.998948000000000000e+06 1.937782043486657715e+10 2.161038663614557190e+11
7.749999999999999914e-08 4.816980000000000000e+06 7.101865593628867188e+11 2.126705132645189209e+11 4.998917000000000000e+06 1.937841577359206009e+10 2.170213038540760193e+11
8.000000000000000167e-08 4.814261000000000000e+06 7.095989445485161133e+11 2.125749983600174866e+11 4.998873000000000000e+06 1.937901100619370651e+10 2.170289496398412476e+11
8.250000000000000421e-08 4.811691000000000000e+06 7.090535589808730469e+11 2.116393237182833252e+11 4.998827000000000000e+06 1.937960725946300125e+10 2.161855265325240784e+11
8.500000000000000674e-08 4.809338000000000000e+06 7.085554064861284180e+11 2.099383897989073792e+11 4.998774000000000000e+06 1.938028736516484833e+10 2.145669864500881042e+11
8.749999999999999604e-08 4.807154000000000000e+06 7.080895464049240723e+11 2.075724435185801086e+11 4.998733000000000000e+06 1.938107529672792053e+10 2.122749176881200256e+11
8.999999999999999857e-08 4.805129000000000000e+06 7.076656471586608887e+11 2.046456042813845825e+11 4.998683000000000000e+06 1.938185392737786865e+10 2.094141265777611084e+11
9.250000000000000111e-08 4.803228000000000000e+06 7.072678702593266602e+11 2.012636354124781799e+11 4.998646000000000000e+06 1.938275095347404480e+10 2.060907515462060242e+11
9.500000000000000364e-08 4.801482000000000000e+06 7.069002677879003906e+11 1.975369972365197754e+11 4.998605000000000000e+06 1.938368860173417664e+10 2.024162247462725830e+11
9.750000000000000618e-08 4.799843000000000000e+06 7.065665530149923096e+11 1.935874445719194031e+11 4.998563000000000000e+06 1.938472196085855865e+10 1.985128450597742920e+11
9.999999999999999547e-08 4.798332000000000000e+06 7.062429624307774658e+11 1.895355090991339722e+11 4.998515000000000000e+06 1.938578262166007996e+10 1.945008493131018372e+11
1.024999999999999980e-07 4.796922000000000000e+06 7.059440198905964355e+11 1.854876765386406860e+11 4.998467000000000000e+06 1.938689761155014420e+10 1.904864651261244812e+11
1.050000000000000005e-07 4.795726000000000000e+06 7.056999722713930664e+11 1.815632149352565002e+11 4.998416000000000000e+06 1.938805940952616119e+10 1.865885506640483704e+11
1.075000000000000031e-07 4.794590000000000000e+06 7.054620450642165527e+11 1.778756412230219421e+11 4.998369000000000000e+06 1.938928954797083664e+10 1.829215472265663452e+11
1.100000000000000056e-07 4.793560000000000000e+06 7.052500859582497559e+11 1.745385429097611389e+11 4.998322000000000000e+06 1.939055933953302002e+10 1.795995964078044128e+11
1.125000000000000081e-07 4.792635000000000000e+06 7.050663053409388428e+11 1.716381816134003906e+11 4.998275000000000000e+06 1.939188605270839691e+10 1.767085956548897400e+11
1.149999999999999974e-07 4.791791000000000000e+06 7.048983853810939941e+11 1.692645560268873901e+11 4.998238000000000000e+06 1.939331258755253601e+10 1.743383655233160095e+11
1.175000000000000000e-07 4.791034000000000000e+06 7.047541689747573242e+11 1.674869991524126282e+11 4.998187000000000000e+06 1.939466711503249741e+10 1.725582326917385559e+11
1.200000000000000157e-07 4.790424000000000000e+06 7.046370723369697266e+11 1.663646148583802795e+11 4.998144000000000000e+06 1.939615239424404526e+10 1.714280662723551636e+11
1.224999999999999918e-07 4.789885000000000000e+06 7.045330911319818115e+11 1.659510097938825989e+11 4.998104000000000000e+06 1.939773200153585052e+10 1.710026341786044922e+11
1.249999999999999943e-07 4.789359000000000000e+06 7.044293889956940918e+11 1.662769459238975220e+11 4.998048000000000000e+06 1.939919348390811920e+10 1.713132603071889038e+11
1.274999999999999969e-07 4.788916000000000000e+06 7.043496012874436035e+11 1.673549228242348328e+11 4.997995000000000000e+06 1.940079403920060349e+10 1.723726681702751770e+11
1.299999999999999994e-07 4.788589000000000000e+06 7.042956815757604980e+11 1.691799032754275818e+11 4.997937000000000000e+06 1.940242760791734314e+10 1.741772052694732056e+11
1.325000000000000019e-07 4.788314000000000000e+06 7.042492697462390137e+11 1.717441235463372803e+11 4.997885000000000000e+06 1.940407098636717224e+10 1.767210962551410217e+11
1.350000000000000045e-07 4.788052000000000000e+06 7.042038575991359863e+11 1.750165471813550720e+11 4.997832000000000000e+06 1.940582027203585815e+10 1.799740611827789917e+11
1.375000000000000070e-07 4.787846000000000000e+06 7.041663560307498779e+11 1.789513495506800232e+11 4.997784000000000000e+06 1.940763300755113983e+10 1.838912207562585754e+11
1.400000000000000095e-07 4.787705000000000000e+06 7.041386336562104492e+11 1.834897883895564880e+11 4.997744000000000000e+06 1.940954299354494476e+10 1.884157617021757507e+11
1.425000000000000121e-07 4.787584000000000000e+06 7.041115143859663086e+11 1.885636390345943298e+11 4.997694000000000000e+06 1.941144623884851456e+10 1.934813051917733154e+11
1.450000000000000146e-07 4.787496000000000000e+06 7.040866599181485596e+11 1.940896343582793274e+11 4.997655000000000000e+06 1.941344825898307800e+10 1.990061710678948364e+11
1.474999999999999907e-07 4.787422000000000000e+06 7.040544154660540771e+11 1.999765107698249512e+11 4.997590000000000000e+06 1.941533265618687439e+10 2.049000704167330627e+11
1.499999999999999932e-07 4.787361000000000000e+06 7.040143657630275879e+11 2.061237209889422302e+11 4.997519000000000000e+06 1.941721511680950165e+10 2.110630356671470337e+11
1.524999999999999957e-07 4.787318000000000000e+06 7.039741168714117432e+11 2.124285347329848328e+11 4.997466000000000000e+06 1.941930989260914612e+10 2.173925936783454895e+11
1.549999999999999983e-07 4.787293000000000000e+06 7.039290636430622559e+11 2.187826718259799194e+11 4.997393000000000000e+06 1.942133610056816101e+10 2.237809883893164673e+11
1.575000000000000008e-07 4.787267000000000000e+06 7.038750214616148682e+11 2.250778630664526367e+11 4.997328000000000000e+06 1.942341370291931152e+10 2.301204111086230774e+11
1.600000000000000033e-07 4.787237000000000000e+06 7.038109615661086426e+11 2.312028907174366150e+11 4.997275000000000000e+06 1.942561641028160858e+10 2.362994810893021545e+11
1.625000000000000059e-07 4.787211000000000000e+06 7.037389557610878906e+11 2.370518694620121155e+11 4.997209000000000000e+06 1.942783700144132614e+10 2.422115181680077820e+11
1.650000000000000084e-07 4.787184000000000000e+06 7.036589022810434570e+11 2.425252144500164185e+11 4.997149000000000000e+06 1.943015660630981445e+10 2.477554251858482971e+11
1.675000000000000109e-07 4.787146000000000000e+06 7.035733421626992188e+11 2.475278082574323730e+11 4.997091000000000000e+06 1.943257770241451645e+10 2.528340103026555786e+11
1.700000000000000135e-07 4.787128000000000000e+06 7.034875139464825439e+11 2.519715276880390930e+11 4.997016000000000000e+06 1.943482253256158829e+10 2.573569643362346497e+11
1.725000000000000160e-07 4.787094000000000000e+06 7.033988756687390137e+11 2.557831037350148315e+11 4.996959000000000000e+06 1.943735422042932510e+10 2.612483000996936035e+11
1.749999999999999921e-07 4.787062000000000000e+06 7.033135609525722656e+11 2.588949703464599915e+11 4.996891000000000000e+06 1.943989944994148636e+10 2.644378836163849182e+11
1.774999999999999946e-07 4.787033000000000000e+06 7.032318580302724609e+11 2.612536708593912354e+11 4.996838000000000000e+06 1.944259914607942963e+10 2.668696454591286316e+11
1.799999999999999971e-07 4.787005000000000000e+06 7.031559423477429199e+11 2.628188128721099854e+11 4.996763000000000000e+06 1.944523139082050323e+10 2.685009668471501770e+11
1.824999999999999997e-07 4.786980000000000000e+06 7.030891184045734863e+11 2.635634115714801941e+11 4.996694000000000000e+06 1.944801397286548233e+10 2.693030875710295410e+11
1.850000000000000022e-07 4.786960000000000000e+06 7.030336781960551758e+11 2.634732919779036560e+11 4.996620000000000000e+06 1.945085949303507614e+10 2.692611020602721863e+11
1.875000000000000048e-07 4.786940000000000000e+06 7.029880104557897949e+11 2.625475440876397400e+11 4.996554000000000000e+06 1.945380783283296585e+10 2.683732232731216736e+11
1.900000000000000073e-07 4.786917000000000000e+06 7.029538685476347656e+11 2.608021737387453613e+11 4.996494000000000000e+06 1.945689084300176239e+10 2.666549644685863037e+11
1.925000000000000098e-07 4.786900000000000000e+06 7.029320612282751465e+11 2.582653186437385254e+11 4.996425000000000000e+06 1.945989739342239380e+10 2.641339891025922852e+11
1.950000000000000124e-07 4.786880000000000000e+06 7.029214885377972412e+11 2.549797392312705078e+11 4.996343000000000000e+06 1.946291331033750916e+10 2.608522991205262146e+11
1.975000000000000149e-07 4.786858000000000000e+06 7.029233013357937012e+11 2.509998457400463562e+11 4.996277000000000000e+06 1.946615477629628754e+10 2.568642617789634399e+11
1.999999999999999909e-07 4.786839000000000000e+06 7.029384386086129150e+11 2.463969214554828491e+11 4.996209000000000000e+06 1.946935128021292877e+10 2.522410139728194580e+11
2.024999999999999935e-07 4.786821000000000000e+06 7.029645053889470215e+11 2.412459610226750793e+11 4.996131000000000000e+06 1.947255728422002411e+10 2.470583683420563965e+11
2.049999999999999960e-07 4.786807000000000000e+06 7.030013710539929199e+11 2.356340770045907288e+11 4.996062000000000000e+06 1.947591434287284851e+10 2.414050076188716125e+11
2.074999999999999986e-07 4.786783000000000000e+06 7.030445383580487061e+11 2.296588755625004272e+11 4.995994000000000000e+06 1.947925321025193024e+10 2.353802451360560913e+11
2.100000000000000011e-07 4.786761000000000000e+06 7.030957761166027832e+11 2.234242571311715088e+11 4.995914000000000000e+06 1.948261602631896591e+10 2.290889612286640930e+11
2.125000000000000036e-07 4.786736000000000000e+06 7.031513218333991699e+11 2.170349075431764221e+11 4.995837000000000000e+06 1.948595280902924347e+10 2.226372812974653625e+11
2.150000000000000062e-07 4.786717000000000000e+06 7.032123441763520508e+11 2.106019276744830322e+11 4.995762000000000000e+06 1.948940117393983078e+10 2.161391282138011475e+11
2.175000000000000087e-07 4.786706000000000000e+06 7.032756952820002441e+11 2.042338662556587830e+11 4.995681000000000000e+06 1.949280866348344040e+10 2.097048037077322693e+11
2.200000000000000112e-07 4.786697000000000000e+06 7.033382757669455566e+11 1.980430794192373352e+11 4.995606000000000000e+06 1.949627710733766174e+10 2.034484187360919495e+11
2.225000000000000138e-07 4.786683000000000000e+06 7.033970524060778809e+11 1.921351182718928833e+11 4.995519000000000000e+06 1.949967209591258240e+10 1.974777523800646667e+11
2.250000000000000163e-07 4.786673000000000000e+06 7.034518027398979492e+11 1.866124047020120544e+11 4.995460000000000000e+06 1.950329247768806839e+10 1.918966834968428650e+11
2.274999999999999924e-07 4.786659000000000000e+06 7.035010395467204590e+11 1.815700626358620911e+11 4.995389000000000000e+06 1.950694465088703156e+10 1.868011713788878784e+11
2.299999999999999949e-07 4.786646000000000000e+06 7.035433511205078125e+11 1.770956436502091064e+11 4.995313000000000000e+06 1.951039375345053101e+10 1.822796761602608948e+11
2.324999999999999974e-07 4.786635000000000000e+06 7.035798360374515381e+11 1.732674454372348328e+11 4.995239000000000000e+06 1.951399577470957184e+10 1.784113432438133850e+11
2.350000000000000000e-07 4.786620000000000000e+06 7.036090444846601562e+11 1.701540205422536011e+11 4.995149000000000000e+06 1.951759401328530502e+10 1.752645447416743164e+11
2.375000000000000025e-07 4.786613000000000000e+06 7.036331929006132812e+11 1.678097817667608948e+11 4.995081000000000000e+06 1.952132368577344894e+10 1.728925816157985840e+11
2.400000000000000315e-07 4.786604000000000000e+06 7.036513898752912598e+11 1.662750844072761230e+11 4.994999000000000000e+06 1.952501709296121216e+10 1.713355442235491333e+11
2.425000000000000076e-07 4.786601000000000000e+06 7.036660469319179688e+11 1.655768922413603210e+11 4.994910000000000000e+06 1.952867048175371552e+10 1.706192915652350159e+11
2.449999999999999836e-07 4.786593000000000000e+06 7.036741424123244629e+11 1.657263267035183716e+11 4.994809000000000000e+06 1.953227372560840988e+10 1.707545883450483093e+11
2.475000000000000126e-07 4.786579000000000000e+06 7.036771820445971680e+11 1.667223211491213379e+11 4.994736000000000000e+06 1.953616009669166565e+10 1.717405449552481384e+11
2.499999999999999887e-07 4.786574000000000000e+06 7.036788231914685059e+11 1.685467411087026672e+11 4.994657000000000000e+06 1.953991035342969894e+10 1.735581369493003845e+11
2.525000000000000177e-07 4.786559000000000000e+06 7.036753849996437988e+11 1.711649114322989807e+11 4.994571000000000000e+06 1.954384701406681824e+10 1.761721345173322754e+11
2.549999999999999938e-07 4.786544000000000000e+06 7.036697986738996582e+11 1.745306837225218811e+11 4.994472000000000000e+06 1.954761331558030701e+10 1.795358284378313599e+11
2.575000000000000228e-07 4.786532000000000000e+06 7.036627244133316650e+11 1.785871061424932861e+11 4.994394000000000000e+06 1.955160260420174789e+10 1.835921075287639771e+11
2.599999999999999988e-07 4.786511000000000000e+06 7.036522185454874268e+11 1.832585162155060120e+11 4.994297000000000000e+06 1.955544397394498444e+10 1.882653235430682983e+11
2.625000000000000278e-07 4.786472000000000000e+06 7.036360885957972412e+11 1.884616074128432312e+11 4.994219000000000000e+06 1.955954312680501938e+10 1.934725771514272156e+11
2.650000000000000039e-07 4.786412000000000000e+06 7.036144070539747314e+11 1.941033671529887390e+11 4.994135000000000000e+06 1.956366512295542145e+10 1.991211979545896912e+11
2.674999999999999800e-07 4.786329000000000000e+06 7.035835033256491699e+11 2.000817625668364258e+11 4.994056000000000000e+06 1.956783358733673477e+10 2.051096174554131775e+11
2.700000000000000090e-07 4.786244000000000000e+06 7.035489822149615479e+11 2.062935238323955688e+11 4.993944000000000000e+06 1.957188891873726654e+10 2.113350855583549805e+11
2.724999999999999850e-07 4.786160000000000000e+06 7.035116765080053711e+11 2.126246896037102356e+11 4.993858000000000000e+06 1.957619831042783356e+10 2.176840359213565369e+11
2.750000000000000140e-07 4.786039000000000000e+06 7.034626568504245605e+11 2.189654619533211060e+11 4.993774000000000000e+06 1.958040003560057831e+10 2.240471508253374023e+11
2.774999999999999901e-07 4.785925000000000000e+06 7.034129896342919922e+11 2.252030029509290466e+11 4.993691000000000000e+06 1.958476466088747406e+10 2.303108810926217651e+11
2.800000000000000191e-07 4.785769000000000000e+06 7.033494460727532959e+11 2.312278850243771362e+11 4.993594000000000000e+06 1.958903558816239166e+10 2.363655494564391785e+11
