# time_tab [s], number_e [$\#$], Ek_e [eV], qV_e [eV], number_i [$\#$], Ek_i [eV], qV_i [eV]
0.000000000000000000e+00 4.999998000000000000e+06 7.489632433984700928e+11 -1.064693038318752289e+10 4.999998000000000000e+06 1.939590984553885269e+10 -1.017867278523001480e+10
2.500000000000000052e-09 4.991613000000000000e+06 7.472790194035157471e+11 -1.063647336682309723e+10 4.999976000000000000e+06 1.939582182485367203e+10 -1.017865267662470055e+10
5.000000000000000105e-09 4.983222000000000000e+06 7.456050718391528320e+11 -9.702138033609903336e+09 4.999948000000000000e+06 1.939565237085129547e+10 -9.255545340695110321e+09
7.500000000000000984e-09 4.974952000000000000e+06 7.439576010072585449e+11 -7.450940051666876793e+09 4.999928000000000000e+06 1.939556196393127441e+10 -7.017786118323529243e+09
1.000000000000000021e-08 4.966716000000000000e+06 7.423307939181772461e+11 -3.917354189016140461e+09 4.999903000000000000e+06 1.939543235053219986e+10 -3.493853969486529350e+09
1.249999999999999943e-08 4.958602000000000000e+06 7.407357256346845703e+11 8.351759949088456631e+08 4.999873000000000000e+06 1.939527418337639999e+10 1.257493231658267260e+09
1.500000000000000197e-08 4.950603000000000000e+06 7.391315474748735352e+11 6.718252487617739677e+09 4.999845000000000000e+06 1.939514200262825394e+10 7.151643505248980522e+09
1.750000000000000119e-08 4.942793000000000000e+06 7.375793305274240723e+11 1.366753853529988861e+10 4.999813000000000000e+06 1.939500832696069717e+10 1.412797649113994026e+10
2.000000000000000042e-08 4.935172000000000000e+06 7.360195806273876953e+11 2.160458193613302231e+10 4.999789000000000000e+06 1.939494248100228500e+10 2.211072284676268387e+10
2.249999999999999964e-08 4.927589000000000000e+06 7.344321401741271973e+11 3.042264932115505219e+10 4.999755000000000000e+06 1.939482759333417892e+10 3.099495070066983032e+10
2.499999999999999887e-08 4.920153000000000000e+06 7.329010559391855469e+11 3.997840056379457092e+10 4.999708000000000000e+06 1.939461130711479187e+10 4.063771726034008026e+10
2.750000000000000140e-08 4.913044000000000000e+06 7.314018291005566406e+11 5.015679972281876373e+10 4.999681000000000000e+06 1.939449994960937500e+10 5.092393639606929779e+10
3.000000000000000394e-08 4.906168000000000000e+06 7.299369622693059082e+11 6.082826863302056122e+10 4.999654000000000000e+06 1.939438366638464737e+10 6.172365106027985382e+10
3.249999999999999985e-08 4.899475000000000000e+06 7.285128664244854736e+11 7.188310782794497681e+10 4.999611000000000000e+06 1.939419645354085922e+10 7.292595741733331299e+10
3.500000000000000239e-08 4.893000000000000000e+06 7.271086748281153564e+11 8.319484608070072937e+10 4.999583000000000000e+06 1.939410299214271927e+10 8.440269231688571167e+10
3.749999999999999830e-08 4.886803000000000000e+06 7.257284730739504395e+11 9.463058909809504700e+10 4.999560000000000000e+06 1.939409876047206116e+10 9.601960211537886047e+10
4.000000000000000084e-08 4.880723000000000000e+06 7.243702792098273926e+11 1.060527884535539398e+11 4.999523000000000000e+06 1.939403276468194199e+10 1.076368977967572632e+11
4.250000000000000337e-08 4.874910000000000000e+06 7.230646717592187500e+11 1.173458938403207397e+11 4.999490000000000000e+06 1.939400809358638000e+10 1.191359247901020050e+11
4.499999999999999929e-08 4.869405000000000000e+06 7.218080496391307373e+11 1.283606098937363129e+11 4.999461000000000000e+06 1.939403424397275543e+10 1.303639515755419617e+11
4.750000000000000182e-08 4.864181000000000000e+06 7.205945112569558105e+11 1.389988106814094849e+11 4.999432000000000000e+06 1.939405579107226944e+10 1.412197245392189026e+11
4.999999999999999774e-08 4.859048000000000000e+06 7.193864844168956299e+11 1.491703255396180725e+11 4.999390000000000000e+06 1.939404361941722107e+10 1.516101847090426331e+11
5.250000000000000027e-08 4.854215000000000000e+06 7.182675900095927734e+11 1.587488476968110962e+11 4.999352000000000000e+06 1.939409688578388977e+10 1.614058632744239502e+11
5.500000000000000281e-08 4.849552000000000000e+06 7.171970437649206543e+11 1.676425623089787292e+11 4.999320000000000000e+06 1.939425384114287567e+10 1.705128373131150513e+11
5.749999999999999872e-08 4.844936000000000000e+06 7.161341474734587402e+11 1.757922947324891968e+11 4.999274000000000000e+06 1.939437374474676895e+10 1.788693983943972168e+11
6.000000000000000787e-08 4.840702000000000000e+06 7.151666705368861084e+11 1.831135169255255737e+11 4.999240000000000000e+06 1.939459808101109695e+10 1.863876421035158081e+11
6.249999999999999717e-08 4.836678000000000000e+06 7.142329937170986328e+11 1.895670355789320984e+11 4.999191000000000000e+06 1.939474664690028381e+10 1.930271831176964417e+11
6.499999999999999971e-08 4.832860000000000000e+06 7.133653156019252930e+11 1.951142661536341553e+11 4.999157000000000000e+06 1.939507820736164474e+10 1.987491017374898682e+11
6.750000000000000224e-08 4.829288000000000000e+06 7.125608428512929688e+11 1.997483859705072937e+11 4.999119000000000000e+06 1.939538627734132385e+10 2.035463700310525513e+11
7.000000000000000477e-08 4.825843000000000000e+06 7.117747165037214355e+11 2.034708729796928406e+11 4.999092000000000000e+06 1.939582716047627258e+10 2.074199841678270264e+11
7.250000000000000731e-08 4.822680000000000000e+06 7.110790851072822266e+11 2.062786646679031067e+11 4.999066000000000000e+06 1.939633951807005310e+10 2.103663347486872559e+11
7.499999999999999661e-08 4.819576000000000000e+06 7.104059181232956543e+11 2.082021918824814758e+11 4.999027000000000000e+06 1.939680344312719727e+10 2.124168573250409241e+11
7.749999999999999914e-08 4.816689000000000000e+06 7.097749598991804199e+11 2.092819756262901306e+11 4.998995000000000000e+06 1.939736230019893265e+10 2.136130235836252441e+11
8.000000000000000167e-08 4.813930000000000000e+06 7.091878526987883301e+11 2.095658385025765686e+11 4.998962000000000000e+06 1.939794276883592987e+10 2.140024890964130859e+11
8.250000000000000421e-08 4.811502000000000000e+06 7.086617351409375000e+11 2.091000613869566956e+11 4.998919000000000000e+06 1.939860227242814255e+10 2.136320109357512512e+11
8.500000000000000674e-08 4.809101000000000000e+06 7.081492741811748047e+11 2.079697071622934875e+11 4.998878000000000000e+06 1.939929522268791962e+10 2.125883829213713379e+11
8.749999999999999604e-08 4.806856000000000000e+06 7.076669463756835938e+11 2.062577710327150879e+11 4.998836000000000000e+06 1.940005834188788605e+10 2.109546250438007507e+11
8.999999999999999857e-08 4.804842000000000000e+06 7.072334746983795166e+11 2.040412712801351624e+11 4.998798000000000000e+06 1.940085915698847961e+10 2.088076951423940125e+11
9.250000000000000111e-08 4.802914000000000000e+06 7.068294959785490723e+11 2.014316798131441040e+11 4.998755000000000000e+06 1.940170195185287476e+10 2.062600175660572815e+11
9.500000000000000364e-08 4.801121000000000000e+06 7.064505800189375000e+11 1.985222574977495117e+11 4.998699000000000000e+06 1.940250505943473816e+10 2.034054761056815796e+11
9.750000000000000618e-08 4.799502000000000000e+06 7.061030518088803711e+11 1.954145572912633667e+11 4.998658000000000000e+06 1.940352139611239624e+10 2.003459923245331421e+11
9.999999999999999547e-08 4.797982000000000000e+06 7.057878777065711670e+11 1.922247398803162842e+11 4.998622000000000000e+06 1.940455199732965469e+10 1.971978754506187439e+11
1.024999999999999980e-07 4.796561000000000000e+06 7.054942593926754150e+11 1.890560423868485413e+11 4.998570000000000000e+06 1.940560843275023651e+10 1.940640619950280151e+11
1.050000000000000005e-07 4.795306000000000000e+06 7.052343708276401367e+11 1.860023963709110413e+11 4.998533000000000000e+06 1.940677825440997696e+10 1.910387897867048645e+11
1.075000000000000031e-07 4.794200000000000000e+06 7.050047313956660156e+11 1.831621919390233459e+11 4.998471000000000000e+06 1.940784687095968628e+10 1.882207837752937012e+11
1.100000000000000056e-07 4.793084000000000000e+06 7.047826096489818115e+11 1.806317354712391357e+11 4.998421000000000000e+06 1.940902265234362793e+10 1.857063022848763123e+11
1.125000000000000081e-07 4.792105000000000000e+06 7.045801906706230469e+11 1.784892559501843567e+11 4.998371000000000000e+06 1.941031752000009155e+10 1.835730234091293640e+11
1.149999999999999974e-07 4.791244000000000000e+06 7.044128653117761230e+11 1.768025709545780334e+11 4.998319000000000000e+06 1.941161962667805481e+10 1.818893139071780396e+11
1.175000000000000000e-07 4.790491000000000000e+06 7.042611659126719971e+11 1.756360317858943481e+11 4.998275000000000000e+06 1.941305235556904602e+10 1.807201495009148865e+11
1.200000000000000157e-07 4.789851000000000000e+06 7.041424169713715820e+11 1.750431881742049561e+11 4.998235000000000000e+06 1.941453604524998474e+10 1.801196071601029358e+11
1.224999999999999918e-07 4.789302000000000000e+06 7.040352180859291992e+11 1.750644887413032837e+11 4.998193000000000000e+06 1.941602859392149353e+10 1.801293347939704895e+11
1.249999999999999943e-07 4.788797000000000000e+06 7.039410314606116943e+11 1.757207048804523926e+11 4.998135000000000000e+06 1.941743196198976898e+10 1.807706369928887634e+11
1.274999999999999969e-07 4.788392000000000000e+06 7.038662926241464844e+11 1.770242748939542542e+11 4.998081000000000000e+06 1.941892642583483505e+10 1.820568989290934143e+11
1.299999999999999994e-07 4.788064000000000000e+06 7.038054658361230469e+11 1.789666565837723999e+11 4.998040000000000000e+06 1.942061426006333923e+10 1.839805594656111450e+11
1.325000000000000019e-07 4.787740000000000000e+06 7.037474234734492188e+11 1.815369997505185852e+11 4.997984000000000000e+06 1.942225984876565933e+10 1.865316177148170471e+11
1.350000000000000045e-07 4.787487000000000000e+06 7.036991199400167236e+11 1.847069231286253967e+11 4.997932000000000000e+06 1.942394518728093338e+10 1.896829677851506653e+11
1.375000000000000070e-07 4.787290000000000000e+06 7.036575667472109375e+11 1.884287985433079529e+11 4.997883000000000000e+06 1.942570569505109406e+10 1.933883887383333740e+11
1.400000000000000095e-07 4.787118000000000000e+06 7.036249819863937988e+11 1.926502127291028442e+11 4.997842000000000000e+06 1.942760770208597565e+10 1.975976379257218933e+11
1.425000000000000121e-07 4.786996000000000000e+06 7.035937012630421143e+11 1.973049213632932434e+11 4.997789000000000000e+06 1.942941632692328644e+10 2.022458381511322327e+11
1.450000000000000146e-07 4.786901000000000000e+06 7.035654942443643799e+11 2.023209722841651611e+11 4.997729000000000000e+06 1.943122558985717392e+10 2.072619082982798462e+11
1.474999999999999907e-07 4.786840000000000000e+06 7.035368325009536133e+11 2.076182224226997681e+11 4.997681000000000000e+06 1.943315578428244781e+10 2.125662945476323242e+11
1.499999999999999932e-07 4.786789000000000000e+06 7.035046245520283203e+11 2.131056483934056091e+11 4.997630000000000000e+06 1.943509562034080505e+10 2.180690565750134583e+11
1.524999999999999957e-07 4.786738000000000000e+06 7.034613346278139648e+11 2.186901987679095154e+11 4.997564000000000000e+06 1.943699254563299179e+10 2.236782937584952087e+11
1.549999999999999983e-07 4.786705000000000000e+06 7.034157845358933105e+11 2.242746636527243958e+11 4.997506000000000000e+06 1.943900841807407379e+10 2.292972398672701416e+11
1.575000000000000008e-07 4.786686000000000000e+06 7.033642615698789062e+11 2.297647744269877625e+11 4.997444000000000000e+06 1.944106353989847565e+10 2.348316100895377808e+11
1.600000000000000033e-07 4.786661000000000000e+06 7.033031390510644531e+11 2.350640057142481995e+11 4.997377000000000000e+06 1.944320250101364136e+10 2.401836988053116150e+11
1.625000000000000059e-07 4.786635000000000000e+06 7.032332388412375488e+11 2.400813241742248535e+11 4.997315000000000000e+06 1.944538804807195282e+10 2.452614198857735901e+11
1.650000000000000084e-07 4.786627000000000000e+06 7.031603955689345703e+11 2.447282454476848145e+11 4.997260000000000000e+06 1.944766943031604004e+10 2.499752446706932983e+11
1.675000000000000109e-07 4.786606000000000000e+06 7.030799862126539307e+11 2.489249784156300964e+11 4.997199000000000000e+06 1.945001953175432968e+10 2.542442218268097229e+11
1.700000000000000135e-07 4.786582000000000000e+06 7.029961787370097656e+11 2.525998758771431580e+11 4.997140000000000000e+06 1.945246494934455109e+10 2.579949487017476807e+11
1.725000000000000160e-07 4.786561000000000000e+06 7.029117923162673340e+11 2.556893722301175842e+11 4.997059000000000000e+06 1.945482065669034576e+10 2.611614336751922913e+11
1.749999999999999921e-07 4.786539000000000000e+06 7.028273645894421387e+11 2.581364922967026978e+11 4.996997000000000000e+06 1.945737615646815872e+10 2.636846258473690491e+11
1.774999999999999946e-07 4.786519000000000000e+06 7.027472957309837646e+11 2.599015880963944702e+11 4.996947000000000000e+06 1.946008033973995209e+10 2.655228442681495972e+11
1.799999999999999971e-07 4.786498000000000000e+06 7.026730028015025635e+11 2.609548086777604065e+11 4.996887000000000000e+06 1.946285486976392746e+10 2.666431252801101685e+11
1.824999999999999997e-07 4.786475000000000000e+06 7.026050911009495850e+11 2.612773013663637390e+11 4.996825000000000000e+06 1.946568024001541901e+10 2.670244580878802490e+11
1.850000000000000022e-07 4.786446000000000000e+06 7.025471541865089111e+11 2.608635842517801514e+11 4.996766000000000000e+06 1.946857809140778351e+10 2.666603253123767700e+11
1.875000000000000048e-07 4.786427000000000000e+06 7.025010040792099609e+11 2.597195988550211182e+11 4.996706000000000000e+06 1.947156941174516678e+10 2.655558638362547302e+11
1.900000000000000073e-07 4.786402000000000000e+06 7.024647089987099609e+11 2.578633137105144043e+11 4.996633000000000000e+06 1.947454185153083801e+10 2.637280134477099915e+11
1.925000000000000098e-07 4.786380000000000000e+06 7.024409390018592529e+11 2.553278823590346985e+11 4.996565000000000000e+06 1.947752349900210571e+10 2.612093838361297302e+11
1.950000000000000124e-07 4.786363000000000000e+06 7.024294620278341064e+11 2.521545281597783813e+11 4.996490000000000000e+06 1.948056582137961578e+10 2.580411573301491394e+11
1.975000000000000149e-07 4.786345000000000000e+06 7.024304341614257812e+11 2.483998088736154175e+11 4.996405000000000000e+06 1.948362157573240662e+10 2.542794644005500793e+11
1.999999999999999909e-07 4.786327000000000000e+06 7.024439357789539795e+11 2.441257818139091492e+11 4.996337000000000000e+06 1.948676282028368378e+10 2.499866476553315735e+11
2.024999999999999935e-07 4.786311000000000000e+06 7.024686429473508301e+11 2.394075658859499207e+11 4.996275000000000000e+06 1.949005245223204422e+10 2.452384647034569702e+11
2.049999999999999960e-07 4.786299000000000000e+06 7.025055882457817383e+11 2.343258855791870422e+11 4.996197000000000000e+06 1.949329099979965210e+10 2.401160021466780090e+11
2.074999999999999986e-07 4.786289000000000000e+06 7.025518097821608887e+11 2.289672932425112610e+11 4.996135000000000000e+06 1.949666801396817780e+10 2.347070596064411926e+11
2.100000000000000011e-07 4.786281000000000000e+06 7.026067583157482910e+11 2.234212500386645203e+11 4.996065000000000000e+06 1.949998598284486389e+10 2.291030386526346130e+11
2.125000000000000036e-07 4.786270000000000000e+06 7.026658622861390381e+11 2.177859293448483582e+11 4.995980000000000000e+06 1.950329952970574570e+10 2.234040957188924255e+11
2.150000000000000062e-07 4.786254000000000000e+06 7.027280728096621094e+11 2.121550953458339844e+11 4.995916000000000000e+06 1.950686610620183563e+10 2.177067278812002258e+11
2.175000000000000087e-07 4.786242000000000000e+06 7.027920567015034180e+11 2.066253475975585022e+11 4.995846000000000000e+06 1.951031493482419586e+10 2.121096994789404907e+11
2.200000000000000112e-07 4.786220000000000000e+06 7.028535028498139648e+11 2.012927650927753601e+11 4.995780000000000000e+06 1.951383586393387222e+10 2.067110418423202209e+11
2.225000000000000138e-07 4.786208000000000000e+06 7.029125808023254395e+11 1.962466291616293335e+11 4.995684000000000000e+06 1.951710546270891571e+10 2.016014966723335571e+11
2.250000000000000163e-07 4.786200000000000000e+06 7.029700449903145752e+11 1.915748560373546143e+11 4.995613000000000000e+06 1.952066407104786682e+10 1.968698514689707031e+11
2.274999999999999924e-07 4.786191000000000000e+06 7.030218068154384766e+11 1.873592281954565125e+11 4.995530000000000000e+06 1.952414000975665665e+10 1.925993908560817261e+11
2.299999999999999949e-07 4.786176000000000000e+06 7.030657188288957520e+11 1.836715607211078796e+11 4.995457000000000000e+06 1.952773004571334457e+10 1.888633008667060547e+11
2.324999999999999974e-07 4.786163000000000000e+06 7.031031985783615723e+11 1.805745588693606262e+11 4.995373000000000000e+06 1.953135426288766479e+10 1.857248572101583557e+11
2.350000000000000000e-07 4.786150000000000000e+06 7.031336273686254883e+11 1.781244749283803711e+11 4.995312000000000000e+06 1.953511060598664474e+10 1.832403712856676025e+11
2.375000000000000025e-07 4.786140000000000000e+06 7.031567156535500488e+11 1.763608190174031677e+11 4.995248000000000000e+06 1.953893576119010162e+10 1.814483204578495178e+11
2.400000000000000315e-07 4.786132000000000000e+06 7.031750572339851074e+11 1.753154008747790527e+11 4.995171000000000000e+06 1.954265457341587067e+10 1.803801275221649475e+11
2.425000000000000076e-07 4.786119000000000000e+06 7.031872859874084473e+11 1.750079763172141113e+11 4.995088000000000000e+06 1.954636265048041534e+10 1.800554773639972229e+11
2.449999999999999836e-07 4.786115000000000000e+06 7.031959419579342041e+11 1.754421999493781738e+11 4.995015000000000000e+06 1.955013061035430527e+10 1.804770683790474548e+11
2.475000000000000126e-07 4.786107000000000000e+06 7.031993376070395508e+11 1.766101328656116333e+11 4.994932000000000000e+06 1.955391648395286179e+10 1.816364545963385010e+11
2.499999999999999887e-07 4.786091000000000000e+06 7.031979205790793457e+11 1.784911921277170410e+11 4.994844000000000000e+06 1.955767969363876343e+10 1.835119747354934998e+11
2.525000000000000177e-07 4.786073000000000000e+06 7.031933740628532715e+11 1.810496893301554565e+11 4.994759000000000000e+06 1.956152498816180420e+10 1.860674391999946289e+11
2.549999999999999938e-07 4.786052000000000000e+06 7.031851664137321777e+11 1.842420156242152710e+11 4.994649000000000000e+06 1.956524448165927124e+10 1.892595001384900513e+11
2.575000000000000228e-07 4.786029000000000000e+06 7.031747646501701660e+11 1.880090737719108887e+11 4.994573000000000000e+06 1.956931003057391357e+10 1.930288012268633118e+11
2.599999999999999988e-07 4.786009000000000000e+06 7.031610251147692871e+11 1.922851872848116455e+11 4.994477000000000000e+06 1.957317371276397705e+10 1.973094028053398743e+11
2.625000000000000278e-07 4.785979000000000000e+06 7.031430756574379883e+11 1.969922945833569946e+11 4.994375000000000000e+06 1.957702323503302383e+10 2.020236736751538086e+11
2.650000000000000039e-07 4.785916000000000000e+06 7.031165395984372559e+11 2.020478855727864685e+11 4.994297000000000000e+06 1.958119581682027435e+10 2.070889761554292603e+11
2.674999999999999800e-07 4.785849000000000000e+06 7.030896098915820312e+11 2.073605915191788330e+11 4.994219000000000000e+06 1.958545199769425964e+10 2.124135329411368408e+11
2.700000000000000090e-07 4.785737000000000000e+06 7.030528266397773438e+11 2.128367229019332275e+11 4.994121000000000000e+06 1.958960754174250412e+10 2.179039097445771484e+11
2.724999999999999850e-07 4.785637000000000000e+06 7.030137869667823486e+11 2.183775199957547302e+11 4.994022000000000000e+06 1.959387199166293335e+10 2.234620151686309814e+11
2.750000000000000140e-07 4.785525000000000000e+06 7.029673381789365234e+11 2.238858246032639465e+11 4.993920000000000000e+06 1.959806069255768967e+10 2.289910823197221375e+11
2.774999999999999901e-07 4.785395000000000000e+06 7.029143935780922852e+11 2.292643007138908386e+11 4.993813000000000000e+06 1.960218419346374130e+10 2.343937671995853882e+11
2.800000000000000191e-07 4.785276000000000000e+06 7.028596535323242188e+11 2.344181359522020874e+11 4.993732000000000000e+06 1.960666317322353363e+10 2.395754874989801636e+11
