# time_tab [s], number_e [$\#$], Ek_e [eV], qV_e [eV], number_i [$\#$], Ek_i [eV], qV_i [eV]
0.000000000000000000e+00 4.999998000000000000e+06 7.495317063278430176e+11 1.535125256686637878e+10 4.999998000000000000e+06 1.940431783237715912e+10 1.590890893156381226e+10
2.500000000000000052e-09 4.991693000000000000e+06 7.478703197713123779e+11 1.536119241308041763e+10 4.999960000000000000e+06 1.940413107980240631e+10 1.590890548919803047e+10
5.000000000000000105e-09 4.983459000000000000e+06 7.462328184185994873e+11 1.599098262668236351e+10 4.999925000000000000e+06 1.940391906666534424e+10 1.652743559371362877e+10
7.500000000000000984e-09 4.975256000000000000e+06 7.446137221236217041e+11 1.770037060074724579e+10 4.999899000000000000e+06 1.940378402659615326e+10 1.822177038349651718e+10
1.000000000000000021e-08 4.966955000000000000e+06 7.429709889273054199e+11 2.044913970951525116e+10 4.999876000000000000e+06 1.940368746580268097e+10 2.095746863925834274e+10
1.249999999999999943e-08 4.958771000000000000e+06 7.413574737825523682e+11 2.418498604943974686e+10 4.999852000000000000e+06 1.940361218267124939e+10 2.468734705503853607e+10
1.500000000000000197e-08 4.950749000000000000e+06 7.397409483062307129e+11 2.884216339555800629e+10 4.999816000000000000e+06 1.940348891836878204e+10 2.935000178505192184e+10
1.750000000000000119e-08 4.942774000000000000e+06 7.381391069122236328e+11 3.436981323643276978e+10 4.999781000000000000e+06 1.940336859618724060e+10 3.489770874165848541e+10
2.000000000000000042e-08 4.935128000000000000e+06 7.365957364441491699e+11 4.068745635897885895e+10 4.999758000000000000e+06 1.940329238120569229e+10 4.125241648543345642e+10
2.249999999999999964e-08 4.927607000000000000e+06 7.350298216065903320e+11 4.771982037977932739e+10 4.999729000000000000e+06 1.940320327759208679e+10 4.834116923966613007e+10
2.499999999999999887e-08 4.920238000000000000e+06 7.335080261925534668e+11 5.539922439048880768e+10 4.999699000000000000e+06 1.940308252885537720e+10 5.609813167234062958e+10
2.750000000000000140e-08 4.913321000000000000e+06 7.320657564283284912e+11 6.361271896792545319e+10 4.999666000000000000e+06 1.940296850779432678e+10 6.441090514782546234e+10
3.000000000000000394e-08 4.906545000000000000e+06 7.306378890481914062e+11 7.232138319589079285e+10 4.999635000000000000e+06 1.940282954823300171e+10 7.324093322778202820e+10
3.249999999999999985e-08 4.899889000000000000e+06 7.291720356200146484e+11 8.143628127909936523e+10 4.999605000000000000e+06 1.940270261433209991e+10 8.249874159413832092e+10
3.500000000000000239e-08 4.893279000000000000e+06 7.277406208735306396e+11 9.082843958371246338e+10 4.999578000000000000e+06 1.940261838341699982e+10 9.205350543103015137e+10
3.749999999999999830e-08 4.886973000000000000e+06 7.263373138332419434e+11 1.003888419702063904e+11 4.999548000000000000e+06 1.940253762393745804e+10 1.017927188237758789e+11
4.000000000000000084e-08 4.880990000000000000e+06 7.250053702855032959e+11 1.100238972022930450e+11 4.999518000000000000e+06 1.940249540150763321e+10 1.116203111807055817e+11
4.250000000000000337e-08 4.875243000000000000e+06 7.236922232291208496e+11 1.196383573640160217e+11 4.999471000000000000e+06 1.940240971712821579e+10 1.214380636345719757e+11
4.499999999999999929e-08 4.869751000000000000e+06 7.224420389758289795e+11 1.291473387610622864e+11 4.999427000000000000e+06 1.940233320671695709e+10 1.311581307529674835e+11
4.750000000000000182e-08 4.864451000000000000e+06 7.212024607443457031e+11 1.384580067254140930e+11 4.999385000000000000e+06 1.940226730632402039e+10 1.406850223418002625e+11
4.999999999999999774e-08 4.859486000000000000e+06 7.200462427413649902e+11 1.474915482607605286e+11 4.999352000000000000e+06 1.940226770646813583e+10 1.499373623424707336e+11
5.250000000000000027e-08 4.854442000000000000e+06 7.188803078708161621e+11 1.561748131028143616e+11 4.999312000000000000e+06 1.940230144954433060e+10 1.588383786971162109e+11
5.500000000000000281e-08 4.849853000000000000e+06 7.178117822028444824e+11 1.644233582589064636e+11 4.999282000000000000e+06 1.940243527887845612e+10 1.672997652323879395e+11
5.749999999999999872e-08 4.845419000000000000e+06 7.167869769695672607e+11 1.721579133191017761e+11 4.999245000000000000e+06 1.940257253751379395e+10 1.752400406667950439e+11
6.000000000000000787e-08 4.841192000000000000e+06 7.158085314603509521e+11 1.793480003029017029e+11 4.999205000000000000e+06 1.940271579736464691e+10 1.826269640479169312e+11
6.249999999999999717e-08 4.837224000000000000e+06 7.149032369857800293e+11 1.859286971373359070e+11 4.999169000000000000e+06 1.940295440896839905e+10 1.893941268169881287e+11
6.499999999999999971e-08 4.833376000000000000e+06 7.140253032577299805e+11 1.918738030221389465e+11 4.999132000000000000e+06 1.940326325757160950e+10 1.955144935205998230e+11
6.750000000000000224e-08 4.829713000000000000e+06 7.131947032964104004e+11 1.971529963910751648e+11 4.999092000000000000e+06 1.940360356790871429e+10 2.009565739417506714e+11
7.000000000000000477e-08 4.826258000000000000e+06 7.124208999247001953e+11 2.017429050921868286e+11 4.999065000000000000e+06 1.940406450445135880e+10 2.056961165780069885e+11
7.250000000000000731e-08 4.823082000000000000e+06 7.117158590033442383e+11 2.056468087338395386e+11 4.999028000000000000e+06 1.940452029171463776e+10 2.097370224260743103e+11
7.499999999999999661e-08 4.820037000000000000e+06 7.110593207958452148e+11 2.088715644353337708e+11 4.998992000000000000e+06 1.940501290579143524e+10 2.130870372506450500e+11
7.749999999999999914e-08 4.817151000000000000e+06 7.104392816675567627e+11 2.114352731385033569e+11 4.998955000000000000e+06 1.940554980433341599e+10 2.157649925814782410e+11
8.000000000000000167e-08 4.814406000000000000e+06 7.098509337871280518e+11 2.133566420504817810e+11 4.998923000000000000e+06 1.940620024007779694e+10 2.177903493036123352e+11
8.250000000000000421e-08 4.811867000000000000e+06 7.093043252784790039e+11 2.146705110487644653e+11 4.998869000000000000e+06 1.940679749213027191e+10 2.191990535111022644e+11
8.500000000000000674e-08 4.809549000000000000e+06 7.087968567288103027e+11 2.154085751112222595e+11 4.998819000000000000e+06 1.940743623759510040e+10 2.200232980385474854e+11
8.749999999999999604e-08 4.807353000000000000e+06 7.083215221836303711e+11 2.156267719113821106e+11 4.998773000000000000e+06 1.940817354467469788e+10 2.203194520071360168e+11
8.999999999999999857e-08 4.805318000000000000e+06 7.078905810864157715e+11 2.153795332922884216e+11 4.998723000000000000e+06 1.940900765274142075e+10 2.201429039812510681e+11
9.250000000000000111e-08 4.803362000000000000e+06 7.074687057229030762e+11 2.147255989129077759e+11 4.998682000000000000e+06 1.940990594476451492e+10 2.195531634519780579e+11
9.500000000000000364e-08 4.801601000000000000e+06 7.070925168903576660e+11 2.137380270639926147e+11 4.998638000000000000e+06 1.941081021467013168e+10 2.186234094302163086e+11
9.750000000000000618e-08 4.799937000000000000e+06 7.067341576888666992e+11 2.124813665147561646e+11 4.998599000000000000e+06 1.941178752602004623e+10 2.174187367100833435e+11
9.999999999999999547e-08 4.798480000000000000e+06 7.064165416594177246e+11 2.110312465487459717e+11 4.998545000000000000e+06 1.941276435732331848e+10 2.160149404214431458e+11
1.024999999999999980e-07 4.797109000000000000e+06 7.061203662564135742e+11 2.094642703978576355e+11 4.998509000000000000e+06 1.941388837096391296e+10 2.144879382694181519e+11
1.050000000000000005e-07 4.795805000000000000e+06 7.058345035178432617e+11 2.078486231328246765e+11 4.998457000000000000e+06 1.941500161157326126e+10 2.129057516687178650e+11
1.075000000000000031e-07 4.794687000000000000e+06 7.056045277414042969e+11 2.062546793595655212e+11 4.998412000000000000e+06 1.941621686263950348e+10 2.113391804002204895e+11
1.100000000000000056e-07 4.793690000000000000e+06 7.053916353485710449e+11 2.047542796246557617e+11 4.998365000000000000e+06 1.941743710342636871e+10 2.098598592842516479e+11
1.125000000000000081e-07 4.792750000000000000e+06 7.051988450143906250e+11 2.034117256796735535e+11 4.998311000000000000e+06 1.941866383010765457e+10 2.085319500426380615e+11
1.149999999999999974e-07 4.791890000000000000e+06 7.050201451365344238e+11 2.022859443521003113e+11 4.998271000000000000e+06 1.942003823297787857e+10 2.074147354536951904e+11
1.175000000000000000e-07 4.791142000000000000e+06 7.048683723366684570e+11 2.014221502649115295e+11 4.998233000000000000e+06 1.942151134451880264e+10 2.065529809744911499e+11
1.200000000000000157e-07 4.790520000000000000e+06 7.047432004317231445e+11 2.008647708191524658e+11 4.998177000000000000e+06 1.942288588466995239e+10 2.059914467043186340e+11
1.224999999999999918e-07 4.789958000000000000e+06 7.046351230595292969e+11 2.006538125227002869e+11 4.998112000000000000e+06 1.942427061711462402e+10 2.057707663502243958e+11
1.249999999999999943e-07 4.789464000000000000e+06 7.045443145919278564e+11 2.008167952057195740e+11 4.998062000000000000e+06 1.942581844119554901e+10 2.059192187121042480e+11
1.274999999999999969e-07 4.789037000000000000e+06 7.044637120908713379e+11 2.013742368321984863e+11 4.998015000000000000e+06 1.942747233915770721e+10 2.064583314191284485e+11
1.299999999999999994e-07 4.788715000000000000e+06 7.044121239395690918e+11 2.023327585907146606e+11 4.997959000000000000e+06 1.942908600882411194e+10 2.073952724911357727e+11
1.325000000000000019e-07 4.788427000000000000e+06 7.043678592980300293e+11 2.036936056756308594e+11 4.997915000000000000e+06 1.943084337410823441e+10 2.087326835344701843e+11
1.350000000000000045e-07 4.788180000000000000e+06 7.043333911442738037e+11 2.054488213157791748e+11 4.997861000000000000e+06 1.943250493088439560e+10 2.104649543352980957e+11
1.375000000000000070e-07 4.787990000000000000e+06 7.043032138671437988e+11 2.075800786859029541e+11 4.997804000000000000e+06 1.943421594254547501e+10 2.125754914810972290e+11
1.400000000000000095e-07 4.787815000000000000e+06 7.042712745684526367e+11 2.100579289129289246e+11 4.997751000000000000e+06 1.943598183962535858e+10 2.150362399346043701e+11
1.425000000000000121e-07 4.787696000000000000e+06 7.042488902284338379e+11 2.128495213682639465e+11 4.997696000000000000e+06 1.943786970948876190e+10 2.178161331885431824e+11
1.450000000000000146e-07 4.787603000000000000e+06 7.042252457715490723e+11 2.159120570682461243e+11 4.997646000000000000e+06 1.943980084054833984e+10 2.208734172146311035e+11
1.474999999999999907e-07 4.787529000000000000e+06 7.041975553375462646e+11 2.191980794904436035e+11 4.997588000000000000e+06 1.944169775834368896e+10 2.241614345829677734e+11
1.499999999999999932e-07 4.787469000000000000e+06 7.041682085626145020e+11 2.226541164106632996e+11 4.997535000000000000e+06 1.944372136015239716e+10 2.276277119575557861e+11
1.524999999999999957e-07 4.787422000000000000e+06 7.041313453994621582e+11 2.262244150600870667e+11 4.997484000000000000e+06 1.944574707826507187e+10 2.312173825141814575e+11
1.549999999999999983e-07 4.787400000000000000e+06 7.040920718751190186e+11 2.298482339462591248e+11 4.997433000000000000e+06 1.944788214564461899e+10 2.348710392556761475e+11
1.575000000000000008e-07 4.787365000000000000e+06 7.040412113060225830e+11 2.334667310902908020e+11 4.997378000000000000e+06 1.945005711756677628e+10 2.385296576461469727e+11
1.600000000000000033e-07 4.787337000000000000e+06 7.039813313882423096e+11 2.370143972248051758e+11 4.997321000000000000e+06 1.945226186490911484e+10 2.421271505755197144e+11
1.625000000000000059e-07 4.787316000000000000e+06 7.039126150142712402e+11 2.404330030040004883e+11 4.997277000000000000e+06 1.945459540898947525e+10 2.456043444725508728e+11
1.650000000000000084e-07 4.787294000000000000e+06 7.038376165040061035e+11 2.436652389246314697e+11 4.997218000000000000e+06 1.945686630748587036e+10 2.489029927370714417e+11
1.675000000000000109e-07 4.787272000000000000e+06 7.037578926518481445e+11 2.466529582561607056e+11 4.997157000000000000e+06 1.945921551182391739e+10 2.519634599724991150e+11
1.700000000000000135e-07 4.787252000000000000e+06 7.036739886368137207e+11 2.493475726526454163e+11 4.997090000000000000e+06 1.946161037603707886e+10 2.547346316796636353e+11
1.725000000000000160e-07 4.787233000000000000e+06 7.035889961652337646e+11 2.517027543780434875e+11 4.997023000000000000e+06 1.946407642081963348e+10 2.571676132863919678e+11
1.749999999999999921e-07 4.787208000000000000e+06 7.035031481256009521e+11 2.536818933354130859e+11 4.996948000000000000e+06 1.946649240854734802e+10 2.592236101668931885e+11
1.774999999999999946e-07 4.787179000000000000e+06 7.034209198730847168e+11 2.552482975093422852e+11 4.996894000000000000e+06 1.946916866862435913e+10 2.608635137540236206e+11
1.799999999999999971e-07 4.787160000000000000e+06 7.033458006114720459e+11 2.563780631236961975e+11 4.996826000000000000e+06 1.947184742539791107e+10 2.620607678872677612e+11
1.824999999999999997e-07 4.787130000000000000e+06 7.032760845143115234e+11 2.570493104030992432e+11 4.996764000000000000e+06 1.947466198777947998e+10 2.627913736427439880e+11
1.850000000000000022e-07 4.787108000000000000e+06 7.032183013236059570e+11 2.572502100026591797e+11 4.996721000000000000e+06 1.947768701411034393e+10 2.630422506273187256e+11
1.875000000000000048e-07 4.787086000000000000e+06 7.031707526928464355e+11 2.569769638496365967e+11 4.996662000000000000e+06 1.948061964546001053e+10 2.628085855228079529e+11
1.900000000000000073e-07 4.787070000000000000e+06 7.031360223846268311e+11 2.562336754845774841e+11 4.996590000000000000e+06 1.948362345747032928e+10 2.620936058175524292e+11
1.925000000000000098e-07 4.787057000000000000e+06 7.031140892282038574e+11 2.550317166863023682e+11 4.996513000000000000e+06 1.948665273507837677e+10 2.609080088854596558e+11
1.950000000000000124e-07 4.787039000000000000e+06 7.031036761466655273e+11 2.533900699096289368e+11 4.996444000000000000e+06 1.948970142698941422e+10 2.592707339963879089e+11
1.975000000000000149e-07 4.787009000000000000e+06 7.031040069265590820e+11 2.513342465372093811e+11 4.996381000000000000e+06 1.949281773338816071e+10 2.572068938816253662e+11
1.999999999999999909e-07 4.786995000000000000e+06 7.031185740545566406e+11 2.488986856209407654e+11 4.996316000000000000e+06 1.949607095290255737e+10 2.547514536432056274e+11
2.024999999999999935e-07 4.786978000000000000e+06 7.031437008158132324e+11 2.461250087564864197e+11 4.996235000000000000e+06 1.949920004527013397e+10 2.519474967638406982e+11
2.049999999999999960e-07 4.786964000000000000e+06 7.031798189081354980e+11 2.430562043095047607e+11 4.996158000000000000e+06 1.950246536306923294e+10 2.488386929712153015e+11
2.074999999999999986e-07 4.786941000000000000e+06 7.032225109011159668e+11 2.397418091011938171e+11 4.996087000000000000e+06 1.950584122758471680e+10 2.454755980220932922e+11
2.100000000000000011e-07 4.786933000000000000e+06 7.032740881308461914e+11 2.362395582001749573e+11 4.996014000000000000e+06 1.950914812025794983e+10 2.419183686161718445e+11
2.125000000000000036e-07 4.786924000000000000e+06 7.033300890277275391e+11 2.326058642859062500e+11 4.995944000000000000e+06 1.951255053778884506e+10 2.382255899000463867e+11
2.150000000000000062e-07 4.786914000000000000e+06 7.033892361323767090e+11 2.289008511899046631e+11 4.995853000000000000e+06 1.951585573307912827e+10 2.344591696279879761e+11
2.175000000000000087e-07 4.786901000000000000e+06 7.034481183870915527e+11 2.251884125051831970e+11 4.995779000000000000e+06 1.951928236205651093e+10 2.306845791355311279e+11
2.200000000000000112e-07 4.786887000000000000e+06 7.035052916693243408e+11 2.215306169948493042e+11 4.995707000000000000e+06 1.952279915579174042e+10 2.269651177624803162e+11
2.225000000000000138e-07 4.786872000000000000e+06 7.035609429416210938e+11 2.179859189593674622e+11 4.995645000000000000e+06 1.952641182930703354e+10 2.233611092758303528e+11
2.250000000000000163e-07 4.786858000000000000e+06 7.036106934154970703e+11 2.146180912763070374e+11 4.995563000000000000e+06 1.952989883497636032e+10 2.199384894512391052e+11
2.274999999999999924e-07 4.786850000000000000e+06 7.036571050210413818e+11 2.114823981921666870e+11 4.995490000000000000e+06 1.953351627813450241e+10 2.167537308904399109e+11
2.299999999999999949e-07 4.786839000000000000e+06 7.036967390559489746e+11 2.086345144691749573e+11 4.995421000000000000e+06 1.953723056692174911e+10 2.138629897314132080e+11
2.324999999999999974e-07 4.786833000000000000e+06 7.037315261812613525e+11 2.061235590990644531e+11 4.995355000000000000e+06 1.954097427403580856e+10 2.113148527713601990e+11
2.350000000000000000e-07 4.786824000000000000e+06 7.037585884247551270e+11 2.039936201288955383e+11 4.995285000000000000e+06 1.954465212606429291e+10 2.091535579875665894e+11
2.375000000000000025e-07 4.786809000000000000e+06 7.037793210106225586e+11 2.022794767531409912e+11 4.995207000000000000e+06 1.954832134663108444e+10 2.074136275878012695e+11
2.400000000000000315e-07 4.786794000000000000e+06 7.037933662985928955e+11 2.010133829982890320e+11 4.995113000000000000e+06 1.955187613448020554e+10 2.061266950645232239e+11
2.425000000000000076e-07 4.786786000000000000e+06 7.038046257229870605e+11 2.002153013861324158e+11 4.995025000000000000e+06 1.955557825958072281e+10 2.053127089494126892e+11
2.449999999999999836e-07 4.786770000000000000e+06 7.038104029941418457e+11 1.999033923249763184e+11 4.994953000000000000e+06 1.955943660329080200e+10 2.049889541034357300e+11
2.475000000000000126e-07 4.786761000000000000e+06 7.038146964968076172e+11 2.000806105395699463e+11 4.994867000000000000e+06 1.956315133678066254e+10 2.051570210761218872e+11
2.499999999999999887e-07 4.786751000000000000e+06 7.038163218437646484e+11 2.007444330418887634e+11 4.994775000000000000e+06 1.956689386063268280e+10 2.058133753850059204e+11
2.525000000000000177e-07 4.786745000000000000e+06 7.038164209307420654e+11 2.018867350483356018e+11 4.994686000000000000e+06 1.957074217242166138e+10 2.069493677411791382e+11
2.549999999999999938e-07 4.786730000000000000e+06 7.038138611401645508e+11 2.034818291711985168e+11 4.994603000000000000e+06 1.957470892634758759e+10 2.085397044052817078e+11
2.575000000000000228e-07 4.786704000000000000e+06 7.038070615317923584e+11 2.055023366423710327e+11 4.994515000000000000e+06 1.957865659043377686e+10 2.105566906259972534e+11
2.599999999999999988e-07 4.786674000000000000e+06 7.037987902905251465e+11 2.079146546367954102e+11 4.994432000000000000e+06 1.958276027152111816e+10 2.129666101321066284e+11
2.625000000000000278e-07 4.786646000000000000e+06 7.037903636485576172e+11 2.106733995757927551e+11 4.994344000000000000e+06 1.958676441844058228e+10 2.157247135311688843e+11
2.650000000000000039e-07 4.786603000000000000e+06 7.037760477187977295e+11 2.137280866531824646e+11 4.994256000000000000e+06 1.959081496278123856e+10 2.187812476885136108e+11
2.674999999999999800e-07 4.786546000000000000e+06 7.037556364892192383e+11 2.170253853293396606e+11 4.994163000000000000e+06 1.959487980564059067e+10 2.220829359396970215e+11
2.700000000000000090e-07 4.786457000000000000e+06 7.037266100486120605e+11 2.205064592810710449e+11 4.994067000000000000e+06 1.959893994955122375e+10 2.255716358964459839e+11
2.724999999999999850e-07 4.786364000000000000e+06 7.036939619017160645e+11 2.241050868851443787e+11 4.993983000000000000e+06 1.960320084525236893e+10 2.291817298501244812e+11
2.750000000000000140e-07 4.786247000000000000e+06 7.036548782596322021e+11 2.277601969982742004e+11 4.993884000000000000e+06 1.960739184947952271e+10 2.328527362222235107e+11
2.774999999999999901e-07 4.786136000000000000e+06 7.036122116686608887e+11 2.314056826424483337e+11 4.993795000000000000e+06 1.961163180692206573e+10 2.365187573877474670e+11
2.800000000000000191e-07 4.786003000000000000e+06 7.035598990450728760e+11 2.349774529932333069e+11 4.993706000000000000e+06 1.961612908868669128e+10 2.401152113095774841e+11
