# time_tab [s], mv_ex [kg m/s], mv_ey [kg m/s], mv_ez [kg m/s], , Mv_ix [kg m/s], Mv_iy [kg m/s], Mv_iz [kg m/s]
0.000000000000000000e+00 -1.826997643991128733e-16 -9.421046881220369977e-17 6.081264388033792922e-17 -4.819536534627493223e-16 1.960542072595837750e-16 -1.127791848811203914e-16
2.500000000000000052e-09 -1.799259206548024667e-16 -1.126011960184216250e-16 6.344910742629839065e-17 -4.858719916029382238e-16 1.964608162612540547e-16 -1.134067311085438780e-16
5.000000000000000105e-09 -1.675679371961944857e-16 -1.298478500609617630e-16 6.107557028691760551e-17 -4.868510638953743627e-16 1.996593392454894213e-16 -1.148500540867117167e-16
7.500000000000000984e-09 -1.541965346909844516e-16 -1.452727673201904340e-16 5.999830310135359711e-17 -4.883316041063819125e-16 1.996958834141629774e-16 -1.165981829487292459e-16
1.000000000000000021e-08 -1.382862515975866686e-16 -1.581952947568737553e-16 5.830736607674615080e-17 -4.861363451082418869e-16 2.010289415818719369e-16 -1.184126977789417513e-16
1.249999999999999943e-08 -1.286813215941138830e-16 -1.692207698581619227e-16 5.427015185031950255e-17 -4.884808999942623555e-16 2.033868452768960091e-16 -1.190526748128860818e-16
1.500000000000000197e-08 -1.147129102406631340e-16 -1.785508692234929311e-16 5.088819484896019006e-17 -4.868260656907792482e-16 2.036005495956920175e-16 -1.203698187649955848e-16
1.750000000000000119e-08 -9.585549584130360531e-17 -1.849696814301421901e-16 5.093453495686045681e-17 -4.839810980767685778e-16 2.035171659330235784e-16 -1.183563522202024561e-16
2.000000000000000042e-08 -7.945493110154149426e-17 -2.008681954164955604e-16 5.654542053101735556e-17 -4.841708520867831019e-16 2.031317076534823531e-16 -1.195031886168839496e-16
2.249999999999999964e-08 -6.209986895659669279e-17 -2.057547059072734448e-16 5.213784491918105350e-17 -4.866013268511047290e-16 2.047601470371346029e-16 -1.204356000378126118e-16
2.499999999999999887e-08 -3.983850240994333923e-17 -2.075677482647724456e-16 4.777767998361124997e-17 -4.858320436385326473e-16 2.036338596161704701e-16 -1.206350798726647078e-16
2.750000000000000140e-08 -1.581058267974220197e-17 -2.087579277680260855e-16 5.253164774207705507e-17 -4.884877254793801137e-16 2.039312018908732354e-16 -1.189415419659771682e-16
3.000000000000000394e-08 4.404792247889133963e-18 -2.154232868644547616e-16 5.412501391639665129e-17 -4.898125922259131303e-16 2.020723014878119093e-16 -1.186080695239778572e-16
3.249999999999999985e-08 2.301854722089015754e-17 -2.135338731670129407e-16 5.543118632103417960e-17 -4.885433084388785270e-16 2.031435997973477730e-16 -1.184537731499357384e-16
3.500000000000000239e-08 4.295920460758041013e-17 -2.098555019018465572e-16 4.795230835920441986e-17 -4.863187535354680043e-16 2.023077480317401134e-16 -1.198954635392547630e-16
3.749999999999999830e-08 6.384658503797287053e-17 -1.968595595870937726e-16 4.723593031484217488e-17 -4.856937664031492806e-16 2.030801012808442839e-16 -1.191334419971899657e-16
4.000000000000000084e-08 8.237304852147531697e-17 -1.859556469868976151e-16 5.172272895616637633e-17 -4.873889224031998785e-16 2.045463073834661291e-16 -1.160785326051019823e-16
4.250000000000000337e-08 9.909319426263151264e-17 -1.723473805464079163e-16 4.494227289859511472e-17 -4.897714968754441243e-16 2.059290049667520344e-16 -1.176388491378456924e-16
4.499999999999999929e-08 1.140006689166567827e-16 -1.635743333566004625e-16 4.541251123262754371e-17 -4.883129264251959555e-16 2.009839468553533632e-16 -1.206738857951253356e-16
4.750000000000000182e-08 1.251226339561527925e-16 -1.481941722180173664e-16 4.512870583378626717e-17 -4.910719050982971593e-16 2.015623574283805362e-16 -1.224639405339090998e-16
4.999999999999999774e-08 1.399963040606132733e-16 -1.416951416753876740e-16 4.566487864660874235e-17 -4.945627918671209401e-16 2.020966550837429899e-16 -1.236471693394049092e-16
5.250000000000000027e-08 1.573692895488214191e-16 -1.272676348588395800e-16 5.095790343521862196e-17 -4.989316999213500682e-16 2.025306108120883703e-16 -1.232843383358435246e-16
5.500000000000000281e-08 1.705450237831349082e-16 -1.152217577160995760e-16 5.283613197323675534e-17 -5.017174905283921038e-16 1.993872227111362338e-16 -1.269399009384408802e-16
5.749999999999999872e-08 1.782796468645929272e-16 -9.953028778476893553e-17 4.971293560140690795e-17 -5.021138754979180389e-16 1.996989818315911111e-16 -1.296221093283615955e-16
6.000000000000000787e-08 1.865259148988388852e-16 -8.574571745470779269e-17 5.099989293886909272e-17 -5.022732085005119796e-16 1.983670856943816370e-16 -1.275261631256488125e-16
6.249999999999999717e-08 1.979966181317319223e-16 -6.994662178819487947e-17 5.815317991353740597e-17 -5.035676762556856563e-16 1.978738375889554050e-16 -1.265797045635022644e-16
6.499999999999999971e-08 1.998332181037436966e-16 -4.568604079630936139e-17 5.381559790248049092e-17 -5.067196217848548401e-16 1.948974361561491588e-16 -1.276065374718616018e-16
6.750000000000000224e-08 2.018195477472874587e-16 -2.651679152472748685e-17 5.587354443023531239e-17 -5.051340857232093764e-16 1.928570316796381866e-16 -1.244157206536133307e-16
7.000000000000000477e-08 2.063753618907952236e-16 -1.054640663909962645e-17 5.589504435719615975e-17 -5.063837806225993644e-16 1.930421393543493831e-16 -1.267000099840535624e-16
7.250000000000000731e-08 2.056031392011359980e-16 4.822310763784324246e-18 5.393001570584591595e-17 -5.078179677591593529e-16 1.898171510424876896e-16 -1.253652675778842056e-16
7.499999999999999661e-08 2.048154923943367816e-16 2.360596123232773139e-17 5.461520373410335086e-17 -5.103324681273508065e-16 1.916576743046929364e-16 -1.227602247182738888e-16
7.749999999999999914e-08 1.996883477021525079e-16 4.046252256077148758e-17 5.537434070769268499e-17 -5.093961357962778346e-16 1.900902613605569338e-16 -1.240216108111602258e-16
8.000000000000000167e-08 1.955805739814302045e-16 5.928896941124590167e-17 5.601741077327885035e-17 -5.114692346849881645e-16 1.906876985702511092e-16 -1.254478173281871507e-16
8.250000000000000421e-08 1.932677095252908225e-16 7.743260327989341329e-17 6.051343649206161746e-17 -5.115277130965894397e-16 1.913862203843973548e-16 -1.269618571317497277e-16
8.500000000000000674e-08 1.828773785102259293e-16 9.470602042462942008e-17 6.096820333620461274e-17 -5.161511530116947298e-16 1.907584466396981265e-16 -1.296460168243237468e-16
8.749999999999999604e-08 1.746043698986722163e-16 1.059453521334333713e-16 6.425399567305716400e-17 -5.183890274927051133e-16 1.864645252181845794e-16 -1.290634163193119539e-16
8.999999999999999857e-08 1.637711352664447615e-16 1.210290783833577986e-16 6.328697903580978172e-17 -5.219305841038293361e-16 1.868181511808727935e-16 -1.286894828625802144e-16
9.250000000000000111e-08 1.520684469619633433e-16 1.361214099968590504e-16 6.097227163021270703e-17 -5.226134860614026743e-16 1.855775252470655183e-16 -1.280916524117903378e-16
9.500000000000000364e-08 1.384099139103746633e-16 1.498660768374439090e-16 6.055022294080550428e-17 -5.259131385866608545e-16 1.859688038177195287e-16 -1.283676586948377237e-16
9.750000000000000618e-08 1.237788768253850044e-16 1.618817504242387551e-16 5.990673750446345332e-17 -5.266213249083948331e-16 1.848004246669110634e-16 -1.288386836004059690e-16
9.999999999999999547e-08 1.054250332374407094e-16 1.711023329311790041e-16 6.156579323872527028e-17 -5.279024725474495966e-16 1.880980134057708827e-16 -1.304042969096129232e-16
1.024999999999999980e-07 9.061410786262975097e-17 1.771475084941135980e-16 6.264317311745347444e-17 -5.277611255355626142e-16 1.902742460554365869e-16 -1.310965933953096947e-16
1.050000000000000005e-07 7.535299413181891860e-17 1.832717526118322727e-16 6.290978806331964066e-17 -5.281885892265630682e-16 1.860205986643012121e-16 -1.275565485895919647e-16
1.075000000000000031e-07 5.898737436855360369e-17 1.859940039356107470e-16 5.958855103332894927e-17 -5.261457850135650055e-16 1.847326471071536420e-16 -1.301017825751771953e-16
1.100000000000000056e-07 4.623494313066141932e-17 1.905555078671333305e-16 6.026227317312754296e-17 -5.266689750831604584e-16 1.855966460447061584e-16 -1.273239509039876551e-16
1.125000000000000081e-07 3.032618334514409832e-17 1.943186323707747918e-16 5.914524799596346024e-17 -5.246819927709558871e-16 1.855777735365704839e-16 -1.271982421720228666e-16
1.149999999999999974e-07 1.257072663435590263e-17 1.953736120571320559e-16 5.959920151035765536e-17 -5.266530559501409838e-16 1.873622520301212537e-16 -1.274741174831768034e-16
1.175000000000000000e-07 -6.155737436522989639e-18 1.954098871647667294e-16 5.907183188423707500e-17 -5.259348299116305854e-16 1.848122594130089227e-16 -1.265984365198743562e-16
1.200000000000000157e-07 -2.002957381152881350e-17 1.927765199008593724e-16 5.936733091424532091e-17 -5.276259061962383446e-16 1.889777832437997613e-16 -1.279556529710152943e-16
1.224999999999999918e-07 -3.702700006031096024e-17 1.905192477628281650e-16 5.850742636023848772e-17 -5.312716287220697439e-16 1.913921373189218599e-16 -1.288753507376561754e-16
1.249999999999999943e-07 -5.234063774181324300e-17 1.858394865283801853e-16 5.783249058619817808e-17 -5.338626366936087120e-16 1.912204437337014415e-16 -1.289872690461610392e-16
1.274999999999999969e-07 -6.911873803863783268e-17 1.785953657258327721e-16 5.941683642963813805e-17 -5.367480858529799581e-16 1.935722873921837080e-16 -1.272516959688684497e-16
1.299999999999999994e-07 -8.338844339671381489e-17 1.711359423157105525e-16 5.884477223712759877e-17 -5.400362198051587376e-16 1.931192127650454452e-16 -1.234570826850554987e-16
1.325000000000000019e-07 -9.637019278823625657e-17 1.631476621441756115e-16 5.800989971936194233e-17 -5.410998508239830478e-16 1.938753842610250309e-16 -1.211226179521116474e-16
1.350000000000000045e-07 -1.091124892607687575e-16 1.525293448381933428e-16 5.760643439157967638e-17 -5.471599080978984049e-16 1.962670351291200367e-16 -1.216510759602986898e-16
1.375000000000000070e-07 -1.217965098152379926e-16 1.411443506245775329e-16 5.771424958069378412e-17 -5.474915409141391826e-16 1.942219758342218547e-16 -1.195468457911605246e-16
1.400000000000000095e-07 -1.326001891148087164e-16 1.283237132750455395e-16 5.732360523702662460e-17 -5.456614257762091694e-16 1.992805267645614057e-16 -1.148306961009288385e-16
1.425000000000000121e-07 -1.422799926199171305e-16 1.144761295337222114e-16 5.751041404686435393e-17 -5.469456989729132858e-16 1.977681972653304331e-16 -1.166047634575276418e-16
1.450000000000000146e-07 -1.498765659847437543e-16 1.010084608829889418e-16 5.709952985509313379e-17 -5.503829237401967740e-16 1.980169007250647152e-16 -1.158680975803878547e-16
1.474999999999999907e-07 -1.569375965849018067e-16 8.579842246091861976e-17 5.739102555191757834e-17 -5.495422826717173042e-16 1.954997361561547103e-16 -1.176843339234849147e-16
1.499999999999999932e-07 -1.623516799232147038e-16 7.040038483226756237e-17 5.722393035629428202e-17 -5.500745138347385099e-16 1.951983731725161429e-16 -1.183611082132817317e-16
1.524999999999999957e-07 -1.664518985858809658e-16 5.496905766798330105e-17 5.708366328674200156e-17 -5.511472792717305039e-16 1.929463874117741604e-16 -1.173952501886247893e-16
1.549999999999999983e-07 -1.690726273445613921e-16 3.974037230082727734e-17 5.708698644747406590e-17 -5.509380240677044562e-16 1.949719356246892257e-16 -1.162547076404601908e-16
1.575000000000000008e-07 -1.702538304732006360e-16 2.383442619155534315e-17 5.698507444231928385e-17 -5.542206992474399425e-16 1.921762246878293871e-16 -1.161985565140058688e-16
1.600000000000000033e-07 -1.701316890382381955e-16 8.367874589530243973e-18 5.724189777209626784e-17 -5.528735786518418356e-16 1.921885153327075538e-16 -1.155587708061955545e-16
1.625000000000000059e-07 -1.683197492257173304e-16 -7.281560905226918374e-18 5.733018915576210895e-17 -5.515917270740798373e-16 1.945318332896573520e-16 -1.141396169416570818e-16
1.650000000000000084e-07 -1.655523000598874387e-16 -2.306585104822984710e-17 5.760629541064693294e-17 -5.541442042155819592e-16 1.951417351698590436e-16 -1.110139524695203564e-16
1.675000000000000109e-07 -1.613678476429779726e-16 -3.840797584193234765e-17 5.737834322474962250e-17 -5.596664774533374219e-16 1.978653669173503375e-16 -1.102579088027262035e-16
1.700000000000000135e-07 -1.557591172591191058e-16 -5.316536625996827342e-17 5.744594851994746861e-17 -5.664772421196390694e-16 2.011114276013551836e-16 -1.102313884823054529e-16
1.725000000000000160e-07 -1.487520471390430134e-16 -6.740633553012785415e-17 5.759332615302304388e-17 -5.716907127060042182e-16 2.034374730072321090e-16 -1.074566856052507119e-16
1.749999999999999921e-07 -1.406580674288561402e-16 -8.098727490372195045e-17 5.738601070080195018e-17 -5.783041552634874221e-16 2.071506431545144480e-16 -1.068924560930164570e-16
1.774999999999999946e-07 -1.312682279913989950e-16 -9.360052520423789935e-17 5.738695455851846890e-17 -5.847366894128755947e-16 2.054923025243033173e-16 -1.070695382209361892e-16
1.799999999999999971e-07 -1.206232732508068253e-16 -1.057237423856439985e-16 5.747024519616266922e-17 -5.916028267293604728e-16 2.085212987869001985e-16 -1.044660222995996253e-16
1.824999999999999997e-07 -1.093401595809398196e-16 -1.164525172808533946e-16 5.765412120326888580e-17 -5.919603503926233645e-16 2.079083697536444168e-16 -1.065199714739587041e-16
1.850000000000000022e-07 -9.628491437347243130e-17 -1.265691719729918628e-16 5.766234131483839492e-17 -5.891132556436781825e-16 2.064123932847494594e-16 -1.082411223586778661e-16
1.875000000000000048e-07 -8.226623388595518882e-17 -1.352961336606693472e-16 5.797957414330555941e-17 -5.861448109339943677e-16 2.041774668291709868e-16 -1.114391149630627507e-16
1.900000000000000073e-07 -6.770609374302605840e-17 -1.428031272593550247e-16 5.758498012301251086e-17 -5.883337684450639917e-16 2.068515592047370091e-16 -1.117345909689586684e-16
1.925000000000000098e-07 -5.243752059683260991e-17 -1.486001424731909691e-16 5.763070352817419506e-17 -5.899518273278702724e-16 2.026936882326134195e-16 -1.068149691310932645e-16
1.950000000000000124e-07 -3.666120481756217775e-17 -1.532977509527902018e-16 5.752162732981708814e-17 -5.941579363752328045e-16 2.056453488788674774e-16 -1.087456804211048284e-16
1.975000000000000149e-07 -2.006182870632909482e-17 -1.560673803813996717e-16 5.753314306445849625e-17 -5.960825646745893017e-16 2.005406932923005106e-16 -1.110195403758288279e-16
1.999999999999999909e-07 -3.776678752418884879e-18 -1.576544322371539116e-16 5.760562056273820440e-17 -5.995655705726436044e-16 1.969954973308637534e-16 -1.118534335428605152e-16
2.024999999999999935e-07 1.234690178424092096e-17 -1.580609361283795666e-16 5.763012659838594923e-17 -6.029976308361777383e-16 1.961512716979114850e-16 -1.075138619835140697e-16
2.049999999999999960e-07 2.854897143715944704e-17 -1.569414909894932996e-16 5.765998679931368862e-17 -6.043932140664992376e-16 1.978919890981199628e-16 -1.078274176873705656e-16
2.074999999999999986e-07 4.478564447673818729e-17 -1.541913058945489972e-16 5.746466441815198499e-17 -6.092732217562275735e-16 1.972449159287668944e-16 -1.087238319403633086e-16
2.100000000000000011e-07 6.053806066689940796e-17 -1.502265775171602417e-16 5.735008389350954607e-17 -6.086543582493063783e-16 1.956447668609426856e-16 -1.092097254631361983e-16
2.125000000000000036e-07 7.560227203594613429e-17 -1.447424267622729777e-16 5.719321294705268825e-17 -6.195619035014879160e-16 2.036821772037986955e-16 -1.132188960720448080e-16
2.150000000000000062e-07 9.021549930312405925e-17 -1.380615412737162035e-16 5.704324924642885399e-17 -6.200288094076886769e-16 1.991696400893240079e-16 -1.165572583211208942e-16
2.175000000000000087e-07 1.042697115622970842e-16 -1.297505798527108754e-16 5.706070048869134995e-17 -6.249409116282279279e-16 2.008363358293896151e-16 -1.166032538888173990e-16
2.200000000000000112e-07 1.173000572848839839e-16 -1.206411522686103466e-16 5.701594241142052567e-17 -6.249310620229252112e-16 1.994674829346380270e-16 -1.164189775309867652e-16
2.225000000000000138e-07 1.296129936219228146e-16 -1.101519627563665481e-16 5.695086918118271536e-17 -6.223786453094787272e-16 1.944587880172113571e-16 -1.155872906504382403e-16
2.250000000000000163e-07 1.409703021671153371e-16 -9.848265912389915380e-17 5.708690764839104362e-17 -6.211405277555001900e-16 2.005083023964695872e-16 -1.132619268154897025e-16
2.274999999999999924e-07 1.511921069251540140e-16 -8.613271930363588044e-17 5.731925599771772029e-17 -6.230581551172182699e-16 1.974997809154610452e-16 -1.131102249897648126e-16
2.299999999999999949e-07 1.599153343199919354e-16 -7.252039130462025735e-17 5.743723158774079586e-17 -6.272593670559943490e-16 1.937122175375731897e-16 -1.164811648861956804e-16
2.324999999999999974e-07 1.674853878165757269e-16 -5.845480826986298046e-17 5.742296236180201028e-17 -6.262899474633031532e-16 1.899478303168430799e-16 -1.138202936968763218e-16
2.350000000000000000e-07 1.735063593566871837e-16 -4.355801878032156845e-17 5.742622088690982592e-17 -6.286601184592416691e-16 1.912405409888886463e-16 -1.122486144123300594e-16
2.375000000000000025e-07 1.781741668784952782e-16 -2.840389056528876889e-17 5.730465468235482915e-17 -6.270258499384737920e-16 1.998901740670806176e-16 -1.094488935580439226e-16
2.400000000000000315e-07 1.809952872327424481e-16 -1.265098446002812576e-17 5.710516103215415157e-17 -6.293478600540569417e-16 1.939329533016154437e-16 -1.053227111097586339e-16
2.425000000000000076e-07 1.828075815584365756e-16 2.953405660164911367e-18 5.713991479872923300e-17 -6.344169963965964980e-16 1.954641597173490328e-16 -1.031017820320384059e-16
2.449999999999999836e-07 1.832463388565261380e-16 1.877944945662608253e-17 5.724405291275645991e-17 -6.405608788488568333e-16 1.992981466259679941e-16 -1.055158907913368312e-16
2.475000000000000126e-07 1.819572583761686807e-16 3.445994117812656993e-17 5.725079460204810757e-17 -6.361605941994426132e-16 1.948879142081129043e-16 -1.050489541548586930e-16
2.499999999999999887e-07 1.794166730625152862e-16 5.028158537630386982e-17 5.717297733591261167e-17 -6.373341983097373972e-16 1.911742391633155207e-16 -1.049632943689342830e-16
2.525000000000000177e-07 1.752265365624131976e-16 6.557225748924169871e-17 5.709057611427109636e-17 -6.410613513441242811e-16 1.911563214630171020e-16 -1.016266528727830720e-16
2.549999999999999938e-07 1.699571649511411330e-16 8.044875028019524258e-17 5.720255378911513187e-17 -6.412520109823427980e-16 1.906981823380409933e-16 -1.006300735322871172e-16
2.575000000000000228e-07 1.625974714820184690e-16 9.498202758018238322e-17 5.728524501178367954e-17 -6.475480268615961696e-16 1.889468336696300836e-16 -9.826865345685318694e-17
2.599999999999999988e-07 1.546809889879284366e-16 1.085416745374170719e-16 5.703461198549741813e-17 -6.487124532702155823e-16 1.971699041468414331e-16 -9.735516070508262189e-17
2.625000000000000278e-07 1.457961698252889262e-16 1.216111909182082099e-16 5.706715594972623738e-17 -6.452912821762475850e-16 2.019211918801108501e-16 -9.670878448941337285e-17
2.650000000000000039e-07 1.354999152315613904e-16 1.331613904327356395e-16 5.733474907882166242e-17 -6.497055398832778476e-16 2.086220869959264059e-16 -9.713920086286531030e-17
2.674999999999999800e-07 1.247948181507890686e-16 1.440321931574853858e-16 5.687953464454384580e-17 -6.457579074439944724e-16 2.040021565568972317e-16 -9.785759953965865565e-17
2.700000000000000090e-07 1.120997272550969852e-16 1.547667191275476928e-16 5.748068465015324086e-17 -6.536666836511007402e-16 2.045403835125718954e-16 -9.237949442671086933e-17
2.724999999999999850e-07 9.862288363889415450e-17 1.639806604181993086e-16 5.753069333884032786e-17 -6.549915583138695068e-16 1.974333797742231952e-16 -9.352910716496367501e-17
2.750000000000000140e-07 8.475249322416444184e-17 1.710472065075779741e-16 5.809243094310214937e-17 -6.560631234381856530e-16 1.926129170024721869e-16 -9.387238330389398083e-17
