# time_tab [s], number_e [$\#$], Ek_e [eV], qV_e [eV], number_i [$\#$], Ek_i [eV], qV_i [eV]
0.000000000000000000e+00 4.999998000000000000e+06 7.495455514445544434e+11 5.061029565699299812e+09 4.999998000000000000e+06 1.938910208898238373e+10 5.556098364234286308e+09
2.500000000000000052e-09 4.991638000000000000e+06 7.478853543220395508e+11 5.067273058775885582e+09 4.999966000000000000e+06 1.938891004001845169e+10 5.556088932923776627e+09
5.000000000000000105e-09 4.983238000000000000e+06 7.461870131342131348e+11 5.714608438202894211e+09 4.999929000000000000e+06 1.938866487223111725e+10 6.204045191040182114e+09
7.500000000000000984e-09 4.974940000000000000e+06 7.445454883651557617e+11 7.562474463142578125e+09 4.999897000000000000e+06 1.938852069528139114e+10 8.056498831744919777e+09
1.000000000000000021e-08 4.966541000000000000e+06 7.428705787451862793e+11 1.062675533371554565e+10 4.999853000000000000e+06 1.938826530269739914e+10 1.113391538134186935e+10
1.249999999999999943e-08 4.958188000000000000e+06 7.412125269576579590e+11 1.490324237794906425e+10 4.999808000000000000e+06 1.938799352905135345e+10 1.543601633482739067e+10
1.500000000000000197e-08 4.949869000000000000e+06 7.395512525836558838e+11 2.037504500366085434e+10 4.999781000000000000e+06 1.938785710938553619e+10 2.094927102855820084e+10
1.750000000000000119e-08 4.941456000000000000e+06 7.378713452948491211e+11 2.703422471388203430e+10 4.999746000000000000e+06 1.938767581420143127e+10 2.766914796076695251e+10
2.000000000000000042e-08 4.933129000000000000e+06 7.362050069905261230e+11 3.485972707122183990e+10 4.999708000000000000e+06 1.938745902537934113e+10 3.557801895097180176e+10
2.249999999999999964e-08 4.924785000000000000e+06 7.345480376131591797e+11 4.382906263988286591e+10 4.999684000000000000e+06 1.938731910559024811e+10 4.465662566647350311e+10
2.499999999999999887e-08 4.916543000000000000e+06 7.329215671216638184e+11 5.395063582437648773e+10 4.999651000000000000e+06 1.938716110074776459e+10 5.491617021993231201e+10
2.750000000000000140e-08 4.908270000000000000e+06 7.312490758793994141e+11 6.521763286452503204e+10 4.999622000000000000e+06 1.938699321599472809e+10 6.635244960200600433e+10
3.000000000000000394e-08 4.899791000000000000e+06 7.295537746460717773e+11 7.760000100564457703e+10 4.999594000000000000e+06 1.938686678798897934e+10 7.893798103528628540e+10
3.249999999999999985e-08 4.891461000000000000e+06 7.279011582073381348e+11 9.109406893550563049e+10 4.999559000000000000e+06 1.938669417966896439e+10 9.267242242908755493e+10
3.500000000000000239e-08 4.883284000000000000e+06 7.262573141572950439e+11 1.056745540292401276e+11 4.999522000000000000e+06 1.938649693752369308e+10 1.075345449734178772e+11
3.749999999999999830e-08 4.875123000000000000e+06 7.246353059298750000e+11 1.213650704366661072e+11 4.999488000000000000e+06 1.938634304021610260e+10 1.235510010785008087e+11
4.000000000000000084e-08 4.866855000000000000e+06 7.230045251661179199e+11 1.381476345982213440e+11 4.999467000000000000e+06 1.938624052798374176e+10 1.407067771588145752e+11
4.250000000000000337e-08 4.858719000000000000e+06 7.213890371637092285e+11 1.559949280289599609e+11 4.999435000000000000e+06 1.938605693832976151e+10 1.589786414499795532e+11
4.499999999999999929e-08 4.850538000000000000e+06 7.197491865938996582e+11 1.749154903626553955e+11 4.999404000000000000e+06 1.938590387179776382e+10 1.783783069447331238e+11
4.750000000000000182e-08 4.842267000000000000e+06 7.180990465262864990e+11 1.948926488031213684e+11 4.999371000000000000e+06 1.938571610870639038e+10 1.988921520059270020e+11
4.999999999999999774e-08 4.834231000000000000e+06 7.165227331015056152e+11 2.159314777149987488e+11 4.999342000000000000e+06 1.938556006539285660e+10 2.205300595905305481e+11
5.250000000000000027e-08 4.826195000000000000e+06 7.149208414011665039e+11 2.380145231715425720e+11 4.999315000000000000e+06 1.938543113194378662e+10 2.432784994494642029e+11
5.500000000000000281e-08 4.817946000000000000e+06 7.132900813151361084e+11 2.611411803614660645e+11 4.999276000000000000e+06 1.938523392187271881e+10 2.671390411538301086e+11
5.749999999999999872e-08 4.809829000000000000e+06 7.116565789015408936e+11 2.852805176335089722e+11 4.999250000000000000e+06 1.938507381929926682e+10 2.920833433067478638e+11
6.000000000000000787e-08 4.801524000000000000e+06 7.099833982720849609e+11 3.104238899664399414e+11 4.999222000000000000e+06 1.938495185947438049e+10 3.181060185385538940e+11
6.249999999999999717e-08 4.793343000000000000e+06 7.083387796339458008e+11 3.365483327882791138e+11 4.999192000000000000e+06 1.938479723691003418e+10 3.451855933309682617e+11
6.499999999999999971e-08 4.785255000000000000e+06 7.067594086086510010e+11 3.636278562572769775e+11 4.999168000000000000e+06 1.938467722758438873e+10 3.732996047449266357e+11
6.750000000000000224e-08 4.777215000000000000e+06 7.051862278137790527e+11 3.916820243178741455e+11 4.999135000000000000e+06 1.938450886874549866e+10 4.024731934335535278e+11
7.000000000000000477e-08 4.769037000000000000e+06 7.035753787032275391e+11 4.207227904852926636e+11 4.999094000000000000e+06 1.938425615693805695e+10 4.327219362383659058e+11
7.250000000000000731e-08 4.760783000000000000e+06 7.019026909294420166e+11 4.507214008470856323e+11 4.999062000000000000e+06 1.938409797813566589e+10 4.640188599524766235e+11
7.499999999999999661e-08 4.752539000000000000e+06 7.002596386360676270e+11 4.816541516986363525e+11 4.999028000000000000e+06 1.938394144102166748e+10 4.963413488487963867e+11
7.749999999999999914e-08 4.744368000000000000e+06 6.986523795130539551e+11 5.134921239134483032e+11 4.998995000000000000e+06 1.938378642599702072e+10 5.296633233834348755e+11
8.000000000000000167e-08 4.736187000000000000e+06 6.970264427859010010e+11 5.462364071366632080e+11 4.998970000000000000e+06 1.938364970802738190e+10 5.639909806448011475e+11
8.250000000000000421e-08 4.728095000000000000e+06 6.954243704749534912e+11 5.799049210896922607e+11 4.998944000000000000e+06 1.938351356745938110e+10 5.993456170377673340e+11
8.500000000000000674e-08 4.719908000000000000e+06 6.938063640486727295e+11 6.144687490135465088e+11 4.998912000000000000e+06 1.938334457578427887e+10 6.357016220161417236e+11
8.749999999999999604e-08 4.711739000000000000e+06 6.921682520102860107e+11 6.499274138854555664e+11 4.998875000000000000e+06 1.938314949661510468e+10 6.730613049492799072e+11
8.999999999999999857e-08 4.703594000000000000e+06 6.905454253779594727e+11 6.862575098352763672e+11 4.998836000000000000e+06 1.938295727306665802e+10 7.114011036621231689e+11
9.250000000000000111e-08 4.695428000000000000e+06 6.889235476287600098e+11 7.234259396793400879e+11 4.998814000000000000e+06 1.938284176079046631e+10 7.506906211618928223e+11
9.500000000000000364e-08 4.687342000000000000e+06 6.873000247755551758e+11 7.614398777323850098e+11 4.998782000000000000e+06 1.938267791968507767e+10 7.909421636797290039e+11
9.750000000000000618e-08 4.679144000000000000e+06 6.856977869825834961e+11 8.003022104929423828e+11 4.998753000000000000e+06 1.938252798904260254e+10 8.321607738010866699e+11
9.999999999999999547e-08 4.671123000000000000e+06 6.840970393372021484e+11 8.399887653620083008e+11 4.998718000000000000e+06 1.938236419377198029e+10 8.743251555944597168e+11
1.024999999999999980e-07 4.662838000000000000e+06 6.824781470585562744e+11 8.805093493768319092e+11 4.998692000000000000e+06 1.938223814036860275e+10 9.174487038044818115e+11
1.050000000000000005e-07 4.654848000000000000e+06 6.808758883982589111e+11 9.218407041453616943e+11 4.998648000000000000e+06 1.938200326086426544e+10 9.615107447370018311e+11
1.075000000000000031e-07 4.646843000000000000e+06 6.792764645536629639e+11 9.639831479652166748e+11 4.998619000000000000e+06 1.938188598856150818e+10 1.006515035265755493e+12
1.100000000000000056e-07 4.638904000000000000e+06 6.776928475479060059e+11 1.006926296719443848e+12 4.998587000000000000e+06 1.938172797659346008e+10 1.052453894113678833e+12
1.125000000000000081e-07 4.630839000000000000e+06 6.760957504030395508e+11 1.050661665145878540e+12 4.998542000000000000e+06 1.938149571575639725e+10 1.099322437476273193e+12
1.149999999999999974e-07 4.622588000000000000e+06 6.744588638234462891e+11 1.095190355886638550e+12 4.998508000000000000e+06 1.938135237393449402e+10 1.147123197812443604e+12
1.175000000000000000e-07 4.614649000000000000e+06 6.728899385197731934e+11 1.140464618313377930e+12 4.998475000000000000e+06 1.938119125592297363e+10 1.195809293093613281e+12
1.200000000000000157e-07 4.606510000000000000e+06 6.712923088587357178e+11 1.186503178270204346e+12 4.998443000000000000e+06 1.938107746651250458e+10 1.245403996569354492e+12
1.224999999999999918e-07 4.598560000000000000e+06 6.696918083820186768e+11 1.233293635311200439e+12 4.998417000000000000e+06 1.938090795187439728e+10 1.295898221619512207e+12
1.249999999999999943e-07 4.590521000000000000e+06 6.681127341351594238e+11 1.280821238074166504e+12 4.998398000000000000e+06 1.938083386742934418e+10 1.347279499013473633e+12
1.274999999999999969e-07 4.582462000000000000e+06 6.665174964210052490e+11 1.329087488264325439e+12 4.998371000000000000e+06 1.938071533600746918e+10 1.399550726494381592e+12
1.299999999999999994e-07 4.574407000000000000e+06 6.649391404252895508e+11 1.378059152236098145e+12 4.998337000000000000e+06 1.938052426118727493e+10 1.452681151812900146e+12
1.325000000000000019e-07 4.566428000000000000e+06 6.633601694296989746e+11 1.427743999099215820e+12 4.998308000000000000e+06 1.938034833687708664e+10 1.506683147056021240e+12
1.350000000000000045e-07 4.558483000000000000e+06 6.617935738790982666e+11 1.478135206021741211e+12 4.998267000000000000e+06 1.938014378710241699e+10 1.561553555568880859e+12
1.375000000000000070e-07 4.550471000000000000e+06 6.602062548239680176e+11 1.529236040903031494e+12 4.998228000000000000e+06 1.937991386716939545e+10 1.617297691615113281e+12
1.400000000000000095e-07 4.542521000000000000e+06 6.586307880690856934e+11 1.581009046460948242e+12 4.998184000000000000e+06 1.937971482189638901e+10 1.673880316417448975e+12
1.425000000000000121e-07 4.534546000000000000e+06 6.570530835766564941e+11 1.633473346146410645e+12 4.998150000000000000e+06 1.937952594798867416e+10 1.731321747532714844e+12
1.450000000000000146e-07 4.526513000000000000e+06 6.554779317124218750e+11 1.686578612168207764e+12 4.998123000000000000e+06 1.937938987203016663e+10 1.789574603610041016e+12
1.474999999999999907e-07 4.518543000000000000e+06 6.538970034258653564e+11 1.740361541331490234e+12 4.998096000000000000e+06 1.937926037507397842e+10 1.848678882842839844e+12
1.499999999999999932e-07 4.510573000000000000e+06 6.523241282423155518e+11 1.794783628290248779e+12 4.998063000000000000e+06 1.937907152320155716e+10 1.908598250319776611e+12
1.524999999999999957e-07 4.502716000000000000e+06 6.507989743467858887e+11 1.849856301861510010e+12 4.998022000000000000e+06 1.937885396056225967e+10 1.969349037659419434e+12
1.549999999999999983e-07 4.494903000000000000e+06 6.492778836134511719e+11 1.905573435449572021e+12 4.997989000000000000e+06 1.937866763497697067e+10 2.030929123646801270e+12
1.575000000000000008e-07 4.486889000000000000e+06 6.477036952366087646e+11 1.961941555644740234e+12 4.997957000000000000e+06 1.937853136483099747e+10 2.093348798002587158e+12
1.600000000000000033e-07 4.479028000000000000e+06 6.461728601276712646e+11 2.018944502974472168e+12 4.997923000000000000e+06 1.937837887137977982e+10 2.156593955904514648e+12
1.625000000000000059e-07 4.471155000000000000e+06 6.446283759977791748e+11 2.076568861507249268e+12 4.997900000000000000e+06 1.937826712805581284e+10 2.220652534698118164e+12
1.650000000000000084e-07 4.463235000000000000e+06 6.430728258336068115e+11 2.134798739413835205e+12 4.997869000000000000e+06 1.937813156425629044e+10 2.285510819394356934e+12
1.675000000000000109e-07 4.455550000000000000e+06 6.415488658566846924e+11 2.193629946301272461e+12 4.997838000000000000e+06 1.937797607202414703e+10 2.351168205412125488e+12
1.700000000000000135e-07 4.447480000000000000e+06 6.399510899835510254e+11 2.253058342409884766e+12 4.997811000000000000e+06 1.937785730923109818e+10 2.417621196660438965e+12
1.725000000000000160e-07 4.439607000000000000e+06 6.384228172478784180e+11 2.313049926176624023e+12 4.997785000000000000e+06 1.937773618146396255e+10 2.484835207187743652e+12
1.749999999999999921e-07 4.431762000000000000e+06 6.368852685525584717e+11 2.373591042762657227e+12 4.997756000000000000e+06 1.937757829184158325e+10 2.552800972411578613e+12
1.774999999999999946e-07 4.423927000000000000e+06 6.353332644905941162e+11 2.434693124799530762e+12 4.997724000000000000e+06 1.937740449668717194e+10 2.621534616819706055e+12
1.799999999999999971e-07 4.416208000000000000e+06 6.338224674285482178e+11 2.496349547756098145e+12 4.997690000000000000e+06 1.937722509457015610e+10 2.691032747834191406e+12
1.824999999999999997e-07 4.408408000000000000e+06 6.323120224213674316e+11 2.558553005833374023e+12 4.997654000000000000e+06 1.937703864462776947e+10 2.761292709961743652e+12
1.850000000000000022e-07 4.400667000000000000e+06 6.307832467941889648e+11 2.621308393894044922e+12 4.997626000000000000e+06 1.937687226993424225e+10 2.832323783963994141e+12
1.875000000000000048e-07 4.392872000000000000e+06 6.292595701923995361e+11 2.684615887649145996e+12 4.997594000000000000e+06 1.937673785925015640e+10 2.904126409482690918e+12
1.900000000000000073e-07 4.384920000000000000e+06 6.277012542116257324e+11 2.748444810257026855e+12 4.997565000000000000e+06 1.937660079384682465e+10 2.976668898879179688e+12
1.925000000000000098e-07 4.376993000000000000e+06 6.261555304968781738e+11 2.812776116580799805e+12 4.997536000000000000e+06 1.937645207559116364e+10 3.049933925712578613e+12
1.950000000000000124e-07 4.369129000000000000e+06 6.246053455832138672e+11 2.877609741520915039e+12 4.997507000000000000e+06 1.937627994079782104e+10 3.123922351379945801e+12
1.975000000000000149e-07 4.361356000000000000e+06 6.230814827911977539e+11 2.942920696538270508e+12 4.997468000000000000e+06 1.937606206500131989e+10 3.198613231382543457e+12
1.999999999999999909e-07 4.353628000000000000e+06 6.215629946809624023e+11 3.008716426060470703e+12 4.997443000000000000e+06 1.937593914478577423e+10 3.274020271450339844e+12
2.024999999999999935e-07 4.345799000000000000e+06 6.200134344097327881e+11 3.075002480290448730e+12 4.997410000000000000e+06 1.937580589650586700e+10 3.350149051213322754e+12
2.049999999999999960e-07 4.337900000000000000e+06 6.184544740125136719e+11 3.141750952548137695e+12 4.997365000000000000e+06 1.937559059407162476e+10 3.426970881200705566e+12
2.074999999999999986e-07 4.330228000000000000e+06 6.169335033004420166e+11 3.208946421391243164e+12 4.997321000000000000e+06 1.937535683209148788e+10 3.504472797295085938e+12
2.100000000000000011e-07 4.322524000000000000e+06 6.154198296544716797e+11 3.276587949435791992e+12 4.997297000000000000e+06 1.937520182882816696e+10 3.582658343915431152e+12
2.125000000000000036e-07 4.314796000000000000e+06 6.139136865616496582e+11 3.344669742061551758e+12 4.997266000000000000e+06 1.937502674508549118e+10 3.661524686781042969e+12
2.150000000000000062e-07 4.306830000000000000e+06 6.123565140190288086e+11 3.413183423610147949e+12 4.997231000000000000e+06 1.937483067319222260e+10 3.741065426324923340e+12
2.175000000000000087e-07 4.299058000000000000e+06 6.108468829723532715e+11 3.482127309325277832e+12 4.997192000000000000e+06 1.937463103501834869e+10 3.821277549028927734e+12
2.200000000000000112e-07 4.291430000000000000e+06 6.093838961269653320e+11 3.551467317220830078e+12 4.997156000000000000e+06 1.937444782104308319e+10 3.902132799414208008e+12
2.225000000000000138e-07 4.283700000000000000e+06 6.078604079248359375e+11 3.621248493618240723e+12 4.997123000000000000e+06 1.937429672182762909e+10 3.983683452571833008e+12
2.250000000000000163e-07 4.276089000000000000e+06 6.063684639264177246e+11 3.691441801686644531e+12 4.997091000000000000e+06 1.937412868189578247e+10 4.065901050671410645e+12
2.274999999999999924e-07 4.268355000000000000e+06 6.048377737635114746e+11 3.762045004001762207e+12 4.997051000000000000e+06 1.937391361574248505e+10 4.148783683901216309e+12
2.299999999999999949e-07 4.260675000000000000e+06 6.033408494531898193e+11 3.833028414927746582e+12 4.997025000000000000e+06 1.937382516693378830e+10 4.232302433347213379e+12
2.324999999999999974e-07 4.253001000000000000e+06 6.018471289772357178e+11 3.904392845464640137e+12 4.997003000000000000e+06 1.937373838491755295e+10 4.316461395258541992e+12
2.350000000000000000e-07 4.245390000000000000e+06 6.003564050695540771e+11 3.976133015928816895e+12 4.996973000000000000e+06 1.937359731247188950e+10 4.401257599703009766e+12
2.375000000000000025e-07 4.237760000000000000e+06 5.988421528625524902e+11 4.048241146609921875e+12 4.996942000000000000e+06 1.937344284591525650e+10 4.486686348145299805e+12
2.400000000000000315e-07 4.230047000000000000e+06 5.973377552310599365e+11 4.120716957822361816e+12 4.996915000000000000e+06 1.937330826656384659e+10 4.572749908898473633e+12
2.425000000000000076e-07 4.222309000000000000e+06 5.958489796808609619e+11 4.193550352347182617e+12 4.996877000000000000e+06 1.937310307237173462e+10 4.659439248166467773e+12
2.449999999999999836e-07 4.214676000000000000e+06 5.943521531371629639e+11 4.266730362440543457e+12 4.996844000000000000e+06 1.937291382299354172e+10 4.746745016893247070e+12
2.475000000000000126e-07 4.207037000000000000e+06 5.928640191956184082e+11 4.340241690312169434e+12 4.996819000000000000e+06 1.937279274684698486e+10 4.834655379249554688e+12
2.499999999999999887e-07 4.199200000000000000e+06 5.913342134810881348e+11 4.414089159259613281e+12 4.996792000000000000e+06 1.937266241080525589e+10 4.923176511162420898e+12
2.525000000000000177e-07 4.191524000000000000e+06 5.898310383303991699e+11 4.488252230909920898e+12 4.996763000000000000e+06 1.937248150135365295e+10 5.012284582218469727e+12
2.549999999999999938e-07 4.183862000000000000e+06 5.883274389324907227e+11 4.562708003978759766e+12 4.996741000000000000e+06 1.937234503768855286e+10 5.101961283704166992e+12
2.575000000000000228e-07 4.176198000000000000e+06 5.868027668294630127e+11 4.637478869412716797e+12 4.996700000000000000e+06 1.937217123542335129e+10 5.192234333982668945e+12
2.599999999999999988e-07 4.168427000000000000e+06 5.852712110463403320e+11 4.712550803645167969e+12 4.996671000000000000e+06 1.937201637538031387e+10 5.283084747473397461e+12
2.625000000000000278e-07 4.160846000000000000e+06 5.837872782705942383e+11 4.787887847109782227e+12 4.996640000000000000e+06 1.937184512254117966e+10 5.374477578899782227e+12
2.650000000000000039e-07 4.153156000000000000e+06 5.822872176290532227e+11 4.863504951341093750e+12 4.996608000000000000e+06 1.937169896468728638e+10 5.466436357195983398e+12
2.674999999999999800e-07 4.145487000000000000e+06 5.807769823423383789e+11 4.939407588177045898e+12 4.996573000000000000e+06 1.937154805204064178e+10 5.558967327419465820e+12
2.700000000000000090e-07 4.137764000000000000e+06 5.792785231984005127e+11 5.015572125048065430e+12 4.996539000000000000e+06 1.937141384687815857e+10 5.652043133444394531e+12
2.724999999999999850e-07 4.130138000000000000e+06 5.777872559377456055e+11 5.091982702244011719e+12 4.996513000000000000e+06 1.937128336160088730e+10 5.745651315004196289e+12
2.750000000000000140e-07 4.122467000000000000e+06 5.763046618064189453e+11 5.168645763817752930e+12 4.996478000000000000e+06 1.937111078704796219e+10 5.839803907758586914e+12
2.774999999999999901e-07 4.114865000000000000e+06 5.748275710421435547e+11 5.245554616288047852e+12 4.996453000000000000e+06 1.937097284141625977e+10 5.934496895613284180e+12
2.800000000000000191e-07 4.107219000000000000e+06 5.733339633714057617e+11 5.322708233821625977e+12 4.996419000000000000e+06 1.937075862826021194e+10 6.029731357097887695e+12
