# time_tab [s], number_e [$\#$], Ek_e [eV], qV_e [eV], number_i [$\#$], Ek_i [eV], qV_i [eV]
0.000000000000000000e+00 4.999998000000000000e+06 7.501871807676113281e+11 1.288634845025175095e+10 4.999998000000000000e+06 1.939023891115873718e+10 1.334843183438639450e+10
2.500000000000000052e-09 4.991798000000000000e+06 7.485632818919619141e+11 1.289240901308535576e+10 4.999975000000000000e+06 1.939013372154836655e+10 1.334844669775856590e+10
5.000000000000000105e-09 4.983374000000000000e+06 7.468721628792758789e+11 1.349948565426019478e+10 4.999945000000000000e+06 1.938997740595223236e+10 1.395653880103325844e+10
7.500000000000000984e-09 4.974864000000000000e+06 7.451458273920419922e+11 1.535421687455659866e+10 4.999903000000000000e+06 1.938976299671129990e+10 1.581616529627916527e+10
1.000000000000000021e-08 4.966596000000000000e+06 7.435068704395812988e+11 1.840022360817506409e+10 4.999867000000000000e+06 1.938958849491882706e+10 1.887569701875533676e+10
1.249999999999999943e-08 4.958298000000000000e+06 7.418499424677222900e+11 2.263566242080776978e+10 4.999835000000000000e+06 1.938942739436006546e+10 2.313723645320866013e+10
1.500000000000000197e-08 4.949960000000000000e+06 7.401734712346103516e+11 2.809040029171903229e+10 4.999796000000000000e+06 1.938925428483913422e+10 2.863398393805307388e+10
1.750000000000000119e-08 4.941509000000000000e+06 7.384955080356552734e+11 3.474170298139537048e+10 4.999762000000000000e+06 1.938907991019937134e+10 3.534614811804818726e+10
2.000000000000000042e-08 4.933023000000000000e+06 7.367952522718059082e+11 4.255913551128208160e+10 4.999735000000000000e+06 1.938893135040108490e+10 4.324682622530398560e+10
2.249999999999999964e-08 4.924643000000000000e+06 7.351334750249160156e+11 5.151387857325318909e+10 4.999704000000000000e+06 1.938874436789492416e+10 5.231086590896471405e+10
2.499999999999999887e-08 4.916489000000000000e+06 7.335288544221384277e+11 6.161341673177313232e+10 4.999675000000000000e+06 1.938858661924556351e+10 6.254901624097642517e+10
2.750000000000000140e-08 4.908117000000000000e+06 7.318513231080061035e+11 7.287489893473226929e+10 4.999648000000000000e+06 1.938842302005334473e+10 7.398275609294569397e+10
3.000000000000000394e-08 4.899799000000000000e+06 7.301901985032016602e+11 8.527821395713192749e+10 4.999606000000000000e+06 1.938819626870185089e+10 8.659469357962522888e+10
3.249999999999999985e-08 4.891591000000000000e+06 7.285672705937720947e+11 9.878500847965689087e+10 4.999580000000000000e+06 1.938805497494374466e+10 1.003491294451983185e+11
3.500000000000000239e-08 4.883334000000000000e+06 7.269130289246160889e+11 1.133845440794902649e+11 4.999542000000000000e+06 1.938786972951220322e+10 1.152391619673990631e+11
3.749999999999999830e-08 4.874972000000000000e+06 7.252506922816108398e+11 1.290951609360545197e+11 4.999512000000000000e+06 1.938771135985668182e+10 1.312861752631645203e+11
4.000000000000000084e-08 4.866531000000000000e+06 7.235649824417969971e+11 1.458753697261187744e+11 4.999484000000000000e+06 1.938757727884905243e+10 1.484508921595249329e+11
4.250000000000000337e-08 4.858289000000000000e+06 7.219243124886804199e+11 1.637011589246843872e+11 4.999450000000000000e+06 1.938739058569750214e+10 1.667116903089562073e+11
4.499999999999999929e-08 4.849864000000000000e+06 7.202650516504179688e+11 1.825829356682864075e+11 4.999417000000000000e+06 1.938722900608279419e+10 1.860822867101318359e+11
4.750000000000000182e-08 4.841752000000000000e+06 7.186638633785764160e+11 2.024985286789285583e+11 4.999380000000000000e+06 1.938702851962890244e+10 2.065437086832933655e+11
4.999999999999999774e-08 4.833524000000000000e+06 7.170263374271174316e+11 2.234491612238845825e+11 4.999347000000000000e+06 1.938689369760662842e+10 2.281009622443078003e+11
5.250000000000000027e-08 4.825334000000000000e+06 7.153728710442360840e+11 2.454318913916712646e+11 4.999312000000000000e+06 1.938670923037307358e+10 2.507551020953128052e+11
5.500000000000000281e-08 4.817141000000000000e+06 7.137139390864643555e+11 2.684497797756427917e+11 4.999278000000000000e+06 1.938655639078666306e+10 2.745117358974795837e+11
5.749999999999999872e-08 4.808923000000000000e+06 7.120781045031186523e+11 2.924706823602086792e+11 4.999249000000000000e+06 1.938638607507219696e+10 2.993411525715064087e+11
6.000000000000000787e-08 4.800758000000000000e+06 7.104474291746636963e+11 3.174872232096251221e+11 4.999222000000000000e+06 1.938625735994179916e+10 3.252401345556093750e+11
6.249999999999999717e-08 4.792595000000000000e+06 7.088354181526464844e+11 3.435012207734054565e+11 4.999182000000000000e+06 1.938609038422988129e+10 3.522143368969382935e+11
6.499999999999999971e-08 4.784378000000000000e+06 7.072058787946529541e+11 3.705017150766737061e+11 4.999159000000000000e+06 1.938595686818260956e+10 3.802556882795496826e+11
6.750000000000000224e-08 4.776310000000000000e+06 7.056040739911529541e+11 3.984851572591331177e+11 4.999130000000000000e+06 1.938583917825505066e+10 4.093630220388901367e+11
7.000000000000000477e-08 4.768054000000000000e+06 7.039584461277551270e+11 4.274328042813937988e+11 4.999097000000000000e+06 1.938571984624119186e+10 4.395202919085131226e+11
7.250000000000000731e-08 4.759932000000000000e+06 7.023194465360756836e+11 4.573302886440542603e+11 4.999074000000000000e+06 1.938560495809342575e+10 4.707153317495855713e+11
7.499999999999999661e-08 4.751890000000000000e+06 7.007258505203320312e+11 4.881555779598815308e+11 4.999049000000000000e+06 1.938548010808304596e+10 5.029294386353144531e+11
7.749999999999999914e-08 4.743723000000000000e+06 6.990968542654086914e+11 5.199142035302659302e+11 4.999019000000000000e+06 1.938533390926617813e+10 5.361721772483632202e+11
8.000000000000000167e-08 4.735691000000000000e+06 6.975265326014802246e+11 5.525977254668476562e+11 4.998994000000000000e+06 1.938520625518136215e+10 5.704387758409936523e+11
8.250000000000000421e-08 4.727465000000000000e+06 6.958960350975568848e+11 5.861980080753870850e+11 4.998962000000000000e+06 1.938505255498539734e+10 6.057242046196358643e+11
8.500000000000000674e-08 4.719522000000000000e+06 6.943063567068830566e+11 6.207152022385550537e+11 4.998926000000000000e+06 1.938491445852767181e+10 6.420316298023472900e+11
8.749999999999999604e-08 4.711411000000000000e+06 6.926923610659156494e+11 6.561241851810437012e+11 4.998900000000000000e+06 1.938477445854065323e+10 6.793382771701412354e+11
8.999999999999999857e-08 4.703285000000000000e+06 6.910709515482119141e+11 6.924093322591757812e+11 4.998861000000000000e+06 1.938455199752560043e+10 7.176312492281275635e+11
9.250000000000000111e-08 4.695183000000000000e+06 6.894576605106195068e+11 7.295667757241394043e+11 4.998831000000000000e+06 1.938431499465090942e+10 7.569099290320412598e+11
9.500000000000000364e-08 4.687140000000000000e+06 6.878441959335126953e+11 7.675983878788724365e+11 4.998802000000000000e+06 1.938416324199825287e+10 7.971787696564685059e+11
9.750000000000000618e-08 4.679087000000000000e+06 6.862563251855202637e+11 8.064801777331048584e+11 4.998770000000000000e+06 1.938402806422376251e+10 8.384170252510970459e+11
9.999999999999999547e-08 4.671134000000000000e+06 6.846698973559362793e+11 8.462091883974490967e+11 4.998736000000000000e+06 1.938389213650256348e+10 8.806252511207406006e+11
1.024999999999999980e-07 4.663212000000000000e+06 6.830669567798391113e+11 8.867798241557939453e+11 4.998710000000000000e+06 1.938376243181335831e+10 9.238006217394259033e+11
1.050000000000000005e-07 4.655231000000000000e+06 6.814856459252746582e+11 9.281821899529687500e+11 4.998679000000000000e+06 1.938358219146313095e+10 9.679361397772727051e+11
1.075000000000000031e-07 4.647162000000000000e+06 6.798895893682980957e+11 9.703998185683502197e+11 4.998651000000000000e+06 1.938345562483834076e+10 1.013018155142108887e+12
1.100000000000000056e-07 4.639095000000000000e+06 6.782956600802502441e+11 1.013415875243225830e+12 4.998616000000000000e+06 1.938329513727186584e+10 1.059031680760849609e+12
1.125000000000000081e-07 4.630996000000000000e+06 6.766871779706143799e+11 1.057224781750982422e+12 4.998596000000000000e+06 1.938317180415108871e+10 1.105973032622963623e+12
1.149999999999999974e-07 4.622924000000000000e+06 6.751029920831467285e+11 1.101814131488345459e+12 4.998567000000000000e+06 1.938297224852645874e+10 1.153832796768714600e+12
1.175000000000000000e-07 4.614944000000000000e+06 6.735329503705583496e+11 1.147167702343615723e+12 4.998537000000000000e+06 1.938282913557133484e+10 1.202600549600630371e+12
1.200000000000000157e-07 4.606864000000000000e+06 6.719460371151865234e+11 1.193313196090237061e+12 4.998507000000000000e+06 1.938263760955475235e+10 1.252305916131379395e+12
1.224999999999999918e-07 4.598880000000000000e+06 6.703611464942646484e+11 1.240204758864931396e+12 4.998482000000000000e+06 1.938252058168613434e+10 1.302904048555322754e+12
1.249999999999999943e-07 4.590821000000000000e+06 6.687754745261379395e+11 1.287835834849923584e+12 4.998449000000000000e+06 1.938234282485247803e+10 1.354392509753450684e+12
1.274999999999999969e-07 4.582943000000000000e+06 6.672155211242919922e+11 1.336197611119671631e+12 4.998401000000000000e+06 1.938204853567981339e+10 1.406766839563121094e+12
1.299999999999999994e-07 4.575044000000000000e+06 6.656538801104229736e+11 1.385307205957609863e+12 4.998373000000000000e+06 1.938190713171266174e+10 1.460048415767031250e+12
1.325000000000000019e-07 4.567166000000000000e+06 6.640849807228374023e+11 1.435142859578454102e+12 4.998340000000000000e+06 1.938172143108429718e+10 1.514217572803297852e+12
1.350000000000000045e-07 4.559255000000000000e+06 6.625408258572583008e+11 1.485692634993712891e+12 4.998306000000000000e+06 1.938155041757856369e+10 1.569266281640989746e+12
1.375000000000000070e-07 4.551270000000000000e+06 6.609542517580592041e+11 1.536962387371309570e+12 4.998280000000000000e+06 1.938140240341355133e+10 1.625203024812269531e+12
1.400000000000000095e-07 4.543276000000000000e+06 6.593512414814116211e+11 1.588922647794659180e+12 4.998250000000000000e+06 1.938123683423700333e+10 1.681998599754157715e+12
1.425000000000000121e-07 4.535255000000000000e+06 6.577834699249898682e+11 1.641555232266850098e+12 4.998207000000000000e+06 1.938100350547833252e+10 1.739636591156819824e+12
1.450000000000000146e-07 4.527463000000000000e+06 6.562411395387203369e+11 1.694850549434822754e+12 4.998181000000000000e+06 1.938083655899685287e+10 1.798112299367142090e+12
1.474999999999999907e-07 4.519297000000000000e+06 6.546326084563021240e+11 1.748831562101827637e+12 4.998157000000000000e+06 1.938068717707910919e+10 1.857450652981385986e+12
1.499999999999999932e-07 4.511390000000000000e+06 6.530690492546623535e+11 1.803458075350439453e+12 4.998120000000000000e+06 1.938051018952816010e+10 1.917610239902023926e+12
1.524999999999999957e-07 4.503378000000000000e+06 6.515135526608034668e+11 1.858717151261122559e+12 4.998085000000000000e+06 1.938034299948628998e+10 1.978581331579252441e+12
1.549999999999999983e-07 4.495571000000000000e+06 6.499646649058507080e+11 1.914611465583987549e+12 4.998045000000000000e+06 1.938014828814075089e+10 2.040371179256993652e+12
1.575000000000000008e-07 4.487807000000000000e+06 6.484352632267152100e+11 1.971133719002126221e+12 4.998024000000000000e+06 1.938001661129043579e+10 2.102977163322966553e+12
1.600000000000000033e-07 4.479890000000000000e+06 6.468734190716970215e+11 2.028291615281210205e+12 4.997989000000000000e+06 1.937983988813002396e+10 2.166410716329713867e+12
1.625000000000000059e-07 4.472153000000000000e+06 6.453503862197297363e+11 2.086077804106003418e+12 4.997953000000000000e+06 1.937969213923659515e+10 2.230667858309320801e+12
1.650000000000000084e-07 4.464223000000000000e+06 6.437639536577548828e+11 2.144487578338515869e+12 4.997921000000000000e+06 1.937951720401855469e+10 2.295745889260731445e+12
1.675000000000000109e-07 4.456253000000000000e+06 6.422192005112287598e+11 2.203483181200252441e+12 4.997894000000000000e+06 1.937936496381150436e+10 2.361606613675800781e+12
1.700000000000000135e-07 4.448427000000000000e+06 6.406815042840257568e+11 2.263056313991698242e+12 4.997861000000000000e+06 1.937921470316744614e+10 2.428244778320224609e+12
1.725000000000000160e-07 4.440486000000000000e+06 6.391171439273928223e+11 2.323210085894216797e+12 4.997839000000000000e+06 1.937911060522780609e+10 2.495667119731462891e+12
1.749999999999999921e-07 4.432562000000000000e+06 6.375728240798889160e+11 2.383932424110754395e+12 4.997807000000000000e+06 1.937897525518571472e+10 2.563862463616489746e+12
1.774999999999999946e-07 4.424657000000000000e+06 6.360326968631711426e+11 2.445203213148428711e+12 4.997768000000000000e+06 1.937878022354575348e+10 2.632812902096086914e+12
1.799999999999999971e-07 4.416913000000000000e+06 6.345025664645815430e+11 2.507015551658484863e+12 4.997731000000000000e+06 1.937857703566230774e+10 2.702514963757514648e+12
1.824999999999999997e-07 4.409061000000000000e+06 6.329654487941751709e+11 2.569364139473682129e+12 4.997709000000000000e+06 1.937847424288858795e+10 2.772966541796200684e+12
1.850000000000000022e-07 4.401144000000000000e+06 6.313886169935856934e+11 2.632248789858938965e+12 4.997676000000000000e+06 1.937830754750910568e+10 2.844169386144645020e+12
1.875000000000000048e-07 4.393377000000000000e+06 6.298428484469047852e+11 2.695655319517774414e+12 4.997641000000000000e+06 1.937813789294391632e+10 2.916109838052408691e+12
1.900000000000000073e-07 4.385459000000000000e+06 6.282846506114547119e+11 2.759570350358093750e+12 4.997608000000000000e+06 1.937795042100994492e+10 2.988777742913468750e+12
1.925000000000000098e-07 4.377609000000000000e+06 6.267414405699918213e+11 2.823999424452448242e+12 4.997582000000000000e+06 1.937781973420949554e+10 3.062182323422745605e+12
1.950000000000000124e-07 4.369866000000000000e+06 6.252184519175312500e+11 2.888925450810748535e+12 4.997553000000000000e+06 1.937768857607747650e+10 3.136309347553299805e+12
1.975000000000000149e-07 4.361992000000000000e+06 6.236622645564498291e+11 2.954350578023899902e+12 4.997516000000000000e+06 1.937746589203815842e+10 3.211162703900844727e+12
1.999999999999999909e-07 4.354099000000000000e+06 6.221047707746635742e+11 3.020259988708335938e+12 4.997480000000000000e+06 1.937726993064682770e+10 3.286728060496994141e+12
2.024999999999999935e-07 4.346195000000000000e+06 6.205608251667485352e+11 3.086638994735366211e+12 4.997455000000000000e+06 1.937717604505241776e+10 3.362991643721701172e+12
2.049999999999999960e-07 4.338342000000000000e+06 6.190279275038850098e+11 3.153472552337446289e+12 4.997419000000000000e+06 1.937702174152585602e+10 3.439941615487755859e+12
2.074999999999999986e-07 4.330550000000000000e+06 6.174998311703537598e+11 3.220774830370135742e+12 4.997390000000000000e+06 1.937689462609079361e+10 3.517593022311366211e+12
2.100000000000000011e-07 4.322702000000000000e+06 6.159599705970301514e+11 3.288509100763228516e+12 4.997357000000000000e+06 1.937673803564608383e+10 3.595911873247484863e+12
2.125000000000000036e-07 4.314955000000000000e+06 6.144489981026359863e+11 3.356678455905997559e+12 4.997321000000000000e+06 1.937654189282031250e+10 3.674907114068331055e+12
2.150000000000000062e-07 4.307099000000000000e+06 6.129232193666652832e+11 3.425285587857175781e+12 4.997293000000000000e+06 1.937640009029499435e+10 3.754581821683393555e+12
2.175000000000000087e-07 4.299221000000000000e+06 6.113911229515258789e+11 3.494312197977750000e+12 4.997256000000000000e+06 1.937620323532062531e+10 3.834919424045416504e+12
2.200000000000000112e-07 4.291337000000000000e+06 6.098370502458166504e+11 3.563761859299892090e+12 4.997236000000000000e+06 1.937608921583342743e+10 3.915924775731699219e+12
2.225000000000000138e-07 4.283573000000000000e+06 6.083295731042750244e+11 3.633611213585264160e+12 4.997204000000000000e+06 1.937596604222483444e+10 3.997574662975810547e+12
2.250000000000000163e-07 4.275841000000000000e+06 6.068342814728853760e+11 3.703852009350509277e+12 4.997175000000000000e+06 1.937586428980249786e+10 4.079866057604028320e+12
2.274999999999999924e-07 4.268161000000000000e+06 6.053283434185927734e+11 3.774498201012816895e+12 4.997134000000000000e+06 1.937569565779829407e+10 4.162816752427641113e+12
2.299999999999999949e-07 4.260542000000000000e+06 6.038458449929899902e+11 3.845530241043622070e+12 4.997105000000000000e+06 1.937558157225365448e+10 4.246412091119902344e+12
2.324999999999999974e-07 4.252805000000000000e+06 6.023151643724160156e+11 3.916966891485683594e+12 4.997080000000000000e+06 1.937545432585978699e+10 4.330674484665908691e+12
2.350000000000000000e-07 4.245052000000000000e+06 6.008104964251195068e+11 3.988777384697329102e+12 4.997042000000000000e+06 1.937524635650123596e+10 4.415571300438289062e+12
2.375000000000000025e-07 4.237246000000000000e+06 5.992596805472084961e+11 4.060953554090578613e+12 4.997014000000000000e+06 1.937515247935757828e+10 4.501093799036507812e+12
2.400000000000000315e-07 4.229446000000000000e+06 5.977236259461665039e+11 4.133480243003363770e+12 4.996981000000000000e+06 1.937493642712223816e+10 4.587226072872911133e+12
2.425000000000000076e-07 4.221855000000000000e+06 5.962301211347128906e+11 4.206340844966434082e+12 4.996949000000000000e+06 1.937476316312759399e+10 4.673953109497764648e+12
2.449999999999999836e-07 4.214293000000000000e+06 5.947504370612368164e+11 4.279526967207068359e+12 4.996912000000000000e+06 1.937456783858842850e+10 4.761273379613708984e+12
2.475000000000000126e-07 4.206729000000000000e+06 5.932763752842844238e+11 4.353058071241750000e+12 4.996891000000000000e+06 1.937446887618975067e+10 4.849212298096087891e+12
2.499999999999999887e-07 4.199013000000000000e+06 5.917805277966539307e+11 4.426923583305317383e+12 4.996860000000000000e+06 1.937433019682280350e+10 4.937762268382253906e+12
2.525000000000000177e-07 4.191232000000000000e+06 5.902542365959272461e+11 4.501121129971049805e+12 4.996826000000000000e+06 1.937417199491412735e+10 5.026920841773620117e+12
2.549999999999999938e-07 4.183715000000000000e+06 5.887905750300201416e+11 4.575627600639472656e+12 4.996797000000000000e+06 1.937395871839185333e+10 5.116666532350070312e+12
2.575000000000000228e-07 4.176023000000000000e+06 5.872766170246193848e+11 4.650446103554685547e+12 4.996769000000000000e+06 1.937384077937413406e+10 5.207005846764138672e+12
2.599999999999999988e-07 4.168308000000000000e+06 5.857514050328154297e+11 4.725569475316824219e+12 4.996730000000000000e+06 1.937361555301786041e+10 5.297929161127149414e+12
2.625000000000000278e-07 4.160534000000000000e+06 5.842356643716977539e+11 4.800976185627285156e+12 4.996699000000000000e+06 1.937347196821298218e+10 5.389412066210904297e+12
2.650000000000000039e-07 4.153038000000000000e+06 5.827942684630034180e+11 4.876653625454027344e+12 4.996673000000000000e+06 1.937330797403643036e+10 5.481446528857435547e+12
2.674999999999999800e-07 4.145428000000000000e+06 5.813183302581585693e+11 4.952611866778117188e+12 4.996638000000000000e+06 1.937313716112195969e+10 5.574052566123889648e+12
2.700000000000000090e-07 4.137851000000000000e+06 5.798497808809128418e+11 5.028858294934662109e+12 4.996609000000000000e+06 1.937298028277575302e+10 5.667240369500479492e+12
2.724999999999999850e-07 4.130233000000000000e+06 5.783524544292587891e+11 5.105376016574332031e+12 4.996574000000000000e+06 1.937276172069559860e+10 5.760991737162835938e+12
2.750000000000000140e-07 4.122739000000000000e+06 5.769070654386683350e+11 5.182157658543345703e+12 4.996539000000000000e+06 1.937257772798795700e+10 5.855301006307807617e+12
2.774999999999999901e-07 4.115081000000000000e+06 5.754106206704655762e+11 5.259196346255051758e+12 4.996516000000000000e+06 1.937247406778682709e+10 5.950162943696637695e+12
2.800000000000000191e-07 4.107479000000000000e+06 5.739585715531722412e+11 5.336475645308632812e+12 4.996480000000000000e+06 1.937228915288583755e+10 6.045563281761719727e+12
