# time_tab [s], number_e [$\#$], Ek_e [eV], qV_e [eV], number_i [$\#$], Ek_i [eV], qV_i [eV]
0.000000000000000000e+00 4.999992000000000000e+06 7.496892093104644775e+11 1.432306943648639679e+10 4.999992000000000000e+06 1.939228427842036057e+10 1.480439929856866455e+10
2.500000000000000052e-09 4.998467000000000000e+06 7.470565625026018066e+11 1.435317673861016464e+10 5.006760000000000000e+06 1.941848349846520996e+10 1.482395229715831184e+10
5.000000000000000105e-09 4.996765000000000000e+06 7.444191281272320557e+11 1.490328254245283890e+10 5.013435000000000000e+06 1.944405465429892731e+10 1.536274496283027649e+10
7.500000000000000984e-09 4.995159000000000000e+06 7.418162400639521484e+11 1.653399396380007935e+10 5.020127000000000000e+06 1.947039281966690063e+10 1.697968718237828064e+10
1.000000000000000021e-08 4.993422000000000000e+06 7.392202788419902344e+11 1.922617850459407806e+10 5.026662000000000000e+06 1.949580613400080109e+10 1.966097529698087311e+10
1.249999999999999943e-08 4.991806000000000000e+06 7.366652196159052734e+11 2.296024134765917587e+10 5.033195000000000000e+06 1.952110367382876587e+10 2.339207264908142853e+10
1.500000000000000197e-08 4.990448000000000000e+06 7.341602055587690430e+11 2.767598569141920853e+10 5.039639000000000000e+06 1.954611193036674500e+10 2.811700060464321136e+10
1.750000000000000119e-08 4.989015000000000000e+06 7.316372224964213867e+11 3.338599548188858795e+10 5.046150000000000000e+06 1.957123053051620865e+10 3.385268908913744354e+10
2.000000000000000042e-08 4.987574000000000000e+06 7.291769862476274414e+11 4.003559062909112549e+10 5.052459000000000000e+06 1.959546406569355774e+10 4.054795986428156281e+10
2.249999999999999964e-08 4.986331000000000000e+06 7.267234822796037598e+11 4.761623035197812653e+10 5.058812000000000000e+06 1.962044199275085449e+10 4.819681116014488220e+10
2.499999999999999887e-08 4.985161000000000000e+06 7.242815160260214844e+11 5.605166937809062958e+10 5.065044000000000000e+06 1.964545091398824310e+10 5.672595662472602081e+10
2.750000000000000140e-08 4.984188000000000000e+06 7.218434951668715820e+11 6.533824770928509521e+10 5.071375000000000000e+06 1.966956284455578613e+10 6.613337334933538055e+10
3.000000000000000394e-08 4.983132000000000000e+06 7.194260370345616455e+11 7.539633269339958191e+10 5.077511000000000000e+06 1.969315772969028091e+10 7.634059666765669250e+10
3.249999999999999985e-08 4.982218000000000000e+06 7.170153102224550781e+11 8.620617876937805176e+10 5.083638000000000000e+06 1.971717149619815826e+10 8.732863375746846008e+10
3.500000000000000239e-08 4.981583000000000000e+06 7.146543688076330566e+11 9.765815510368988037e+10 5.089696000000000000e+06 1.974040125722510910e+10 9.898774065674357605e+10
3.749999999999999830e-08 4.981076000000000000e+06 7.123300315400969238e+11 1.097130032258697815e+11 5.095642000000000000e+06 1.976389623234516907e+10 1.112779536169076385e+11
4.000000000000000084e-08 4.980595000000000000e+06 7.099969811185217285e+11 1.223080259014436951e+11 5.101516000000000000e+06 1.978689862262974548e+10 1.241353125416931458e+11
4.250000000000000337e-08 4.980501000000000000e+06 7.077132112861879883e+11 1.354076421726649170e+11 5.107465000000000000e+06 1.981004574330949402e+10 1.375224882136212769e+11
4.499999999999999929e-08 4.980580000000000000e+06 7.054826659500479736e+11 1.489283735324402466e+11 5.113324000000000000e+06 1.983301278907782364e+10 1.513536118652986450e+11
4.750000000000000182e-08 4.980467000000000000e+06 7.032571203738642578e+11 1.628164036936374512e+11 5.118974000000000000e+06 1.985512738058952332e+10 1.655717942977315369e+11
4.999999999999999774e-08 4.980852000000000000e+06 7.010418659404333496e+11 1.769836410166718445e+11 5.124840000000000000e+06 1.987811950669869614e+10 1.800847563416293030e+11
5.250000000000000027e-08 4.981292000000000000e+06 6.988465531018618164e+11 1.913446499209765320e+11 5.130674000000000000e+06 1.990093041067029572e+10 1.948028735639469299e+11
5.500000000000000281e-08 4.981975000000000000e+06 6.967428769075468750e+11 2.058087074511036682e+11 5.136331000000000000e+06 1.992334606386478043e+10 2.096318005885438843e+11
5.749999999999999872e-08 4.982844000000000000e+06 6.946637951747651367e+11 2.203165625990263062e+11 5.142051000000000000e+06 1.994607933129463959e+10 2.245080153615767517e+11
6.000000000000000787e-08 4.983883000000000000e+06 6.926307338020925293e+11 2.347988383812153320e+11 5.147686000000000000e+06 1.996845429015163422e+10 2.393575236051896973e+11
6.249999999999999717e-08 4.984952000000000000e+06 6.906227290752749023e+11 2.491725999423808289e+11 5.153278000000000000e+06 1.999028452514673615e+10 2.540927279596330261e+11
6.499999999999999971e-08 4.986359000000000000e+06 6.887277019514956055e+11 2.633384360086781921e+11 5.158790000000000000e+06 2.001226900534514618e+10 2.686101689533855286e+11
6.750000000000000224e-08 4.987944000000000000e+06 6.868371163407703857e+11 2.772095343335004272e+11 5.164421000000000000e+06 2.003462320587191010e+10 2.828192075000587158e+11
7.000000000000000477e-08 4.989706000000000000e+06 6.850594803945661621e+11 2.907194549707492065e+11 5.169858000000000000e+06 2.005646736516259384e+10 2.966501158223955078e+11
7.250000000000000731e-08 4.991538000000000000e+06 6.833256002436750488e+11 3.037922149235233765e+11 5.175288000000000000e+06 2.007810568959423828e+10 3.100237946884443359e+11
7.499999999999999661e-08 4.993510000000000000e+06 6.816406654696066895e+11 3.163307968698464966e+11 5.180695000000000000e+06 2.010013428321590424e+10 3.228406469225352173e+11
7.749999999999999914e-08 4.995542000000000000e+06 6.800341633251801758e+11 3.282767478765537720e+11 5.185945000000000000e+06 2.012146593578246307e+10 3.350406723126386108e+11
8.000000000000000167e-08 4.997857000000000000e+06 6.784495237812946777e+11 3.395868762463452148e+11 5.191407000000000000e+06 2.014382400064183044e+10 3.465788386446163330e+11
8.250000000000000421e-08 5.000125000000000000e+06 6.769501990813029785e+11 3.501632663361651611e+11 5.196667000000000000e+06 2.016526100444591904e+10 3.573552308149122314e+11
8.500000000000000674e-08 5.002408000000000000e+06 6.755048506926120605e+11 3.599420451456114502e+11 5.201875000000000000e+06 2.018678457267546082e+10 3.673053082102960205e+11
8.749999999999999604e-08 5.004948000000000000e+06 6.741187517881496582e+11 3.688844835611469116e+11 5.207119000000000000e+06 2.020828959937582779e+10 3.763895070371482544e+11
8.999999999999999857e-08 5.007426000000000000e+06 6.727972210875610352e+11 3.769090845585906982e+11 5.212243000000000000e+06 2.022954473493367767e+10 3.845268441535673218e+11
9.250000000000000111e-08 5.010085000000000000e+06 6.715214614296068115e+11 3.840037115227149048e+11 5.217405000000000000e+06 2.025081782391713715e+10 3.917071457240489502e+11
9.500000000000000364e-08 5.012776000000000000e+06 6.703073384652673340e+11 3.901407149190930786e+11 5.222473000000000000e+06 2.027173549314952850e+10 3.979052689956671753e+11
9.750000000000000618e-08 5.015544000000000000e+06 6.691247360535557861e+11 3.952853308067258301e+11 5.227514000000000000e+06 2.029332733030334091e+10 4.030887687978115845e+11
9.999999999999999547e-08 5.018441000000000000e+06 6.680279999483143311e+11 3.994223127962035522e+11 5.232436000000000000e+06 2.031418127000667572e+10 4.072452579866813354e+11
1.024999999999999980e-07 5.021501000000000000e+06 6.669150750144920654e+11 4.025728887004448853e+11 5.237563000000000000e+06 2.033606080648697662e+10 4.103988773137531128e+11
1.050000000000000005e-07 5.024358000000000000e+06 6.658621783582218018e+11 4.046975874610273438e+11 5.242427000000000000e+06 2.035656145866485214e+10 4.125126004752467651e+11
1.075000000000000031e-07 5.027363000000000000e+06 6.648049335528081055e+11 4.058318906965382690e+11 5.247437000000000000e+06 2.037810445726155090e+10 4.136254205433369751e+11
1.100000000000000056e-07 5.030483000000000000e+06 6.637725591417434082e+11 4.059850715784562988e+11 5.252423000000000000e+06 2.039949735825482941e+10 4.137502399413733521e+11
1.125000000000000081e-07 5.033638000000000000e+06 6.627821750994318848e+11 4.051870549498179932e+11 5.257304000000000000e+06 2.042020676245668030e+10 4.129198192077394409e+11
1.149999999999999974e-07 5.036713000000000000e+06 6.618180694686784668e+11 4.034650670426311646e+11 5.262099000000000000e+06 2.044083095848484802e+10 4.111644257227025757e+11
1.175000000000000000e-07 5.039835000000000000e+06 6.608609690928247070e+11 4.008730286168388062e+11 5.266881000000000000e+06 2.046178546640203094e+10 4.085409867368750000e+11
1.200000000000000157e-07 5.042923000000000000e+06 6.599019713717114258e+11 3.974766117137164917e+11 5.271625000000000000e+06 2.048243919243922424e+10 4.051179549520999146e+11
1.224999999999999918e-07 5.046055000000000000e+06 6.589496484096437988e+11 3.933298911554821777e+11 5.276353000000000000e+06 2.050329755990253448e+10 4.009513677739456177e+11
1.249999999999999943e-07 5.049295000000000000e+06 6.579533204429033203e+11 3.885067039925473633e+11 5.281224000000000000e+06 2.052488469884643936e+10 3.961160255702451172e+11
1.274999999999999969e-07 5.052534000000000000e+06 6.570052988658608398e+11 3.830371628385288696e+11 5.285914000000000000e+06 2.054585344607554245e+10 3.906434839709695435e+11
1.299999999999999994e-07 5.055819000000000000e+06 6.560525200734660645e+11 3.770440894770492554e+11 5.290617000000000000e+06 2.056688685350500488e+10 3.846587808821700439e+11
1.325000000000000019e-07 5.058985000000000000e+06 6.550967247900969238e+11 3.706302940257504883e+11 5.295210000000000000e+06 2.058742752316838074e+10 3.782661801718820801e+11
1.350000000000000045e-07 5.062164000000000000e+06 6.541205947297950439e+11 3.638860033441410522e+11 5.299819000000000000e+06 2.060822697789899445e+10 3.715561255308192139e+11
1.375000000000000070e-07 5.065341000000000000e+06 6.531400301183315430e+11 3.568899517710018921e+11 5.304408000000000000e+06 2.062905013567544556e+10 3.646076302394704590e+11
1.400000000000000095e-07 5.068514000000000000e+06 6.521495312685966797e+11 3.497372142220255127e+11 5.308991000000000000e+06 2.065029523945481110e+10 3.575157152523632812e+11
1.425000000000000121e-07 5.071592000000000000e+06 6.511708531329108887e+11 3.425130819923984985e+11 5.313475000000000000e+06 2.067080088251118851e+10 3.503647024285473633e+11
1.450000000000000146e-07 5.074665000000000000e+06 6.501785115214360352e+11 3.353236638654410400e+11 5.317921000000000000e+06 2.069099026136228180e+10 3.432596853401431885e+11
1.474999999999999907e-07 5.077682000000000000e+06 6.491910607721005859e+11 3.282568792758880005e+11 5.322278000000000000e+06 2.071117805203197479e+10 3.362876054738203125e+11
1.499999999999999932e-07 5.080647000000000000e+06 6.481616107867742920e+11 3.214287773734807129e+11 5.326729000000000000e+06 2.073180177975632095e+10 3.295637780177656860e+11
1.524999999999999957e-07 5.083840000000000000e+06 6.471321398483461914e+11 3.149277147585819702e+11 5.331263000000000000e+06 2.075284163950930405e+10 3.231758164377838135e+11
1.549999999999999983e-07 5.086934000000000000e+06 6.461034708309873047e+11 3.088234141244683228e+11 5.335700000000000000e+06 2.077359628956547165e+10 3.171930312297498779e+11
1.575000000000000008e-07 5.089944000000000000e+06 6.450861975240426025e+11 3.032222187700243530e+11 5.340044000000000000e+06 2.079391710324301147e+10 3.117215074806090088e+11
1.600000000000000033e-07 5.092900000000000000e+06 6.440395913740743408e+11 2.982047090246280518e+11 5.344416000000000000e+06 2.081461998964661026e+10 3.068409595364241943e+11
1.625000000000000059e-07 5.095845000000000000e+06 6.430034400352174072e+11 2.938411831996223755e+11 5.348714000000000000e+06 2.083507971145642853e+10 3.026203716020031128e+11
1.650000000000000084e-07 5.098698000000000000e+06 6.419760284624991455e+11 2.901738502263839111e+11 5.352964000000000000e+06 2.085536377893589783e+10 2.991009494339039307e+11
1.675000000000000109e-07 5.101652000000000000e+06 6.409293948288303223e+11 2.872855685011303101e+11 5.357265000000000000e+06 2.087645747523517227e+10 2.963652411248469849e+11
1.700000000000000135e-07 5.104668000000000000e+06 6.398919924222797852e+11 2.852199427549315186e+11 5.361565000000000000e+06 2.089736751633525467e+10 2.944570947176715088e+11
1.725000000000000160e-07 5.107443000000000000e+06 6.388442290118955078e+11 2.839947005810870361e+11 5.365739000000000000e+06 2.091794417493216324e+10 2.933945447744920654e+11
1.749999999999999921e-07 5.110101000000000000e+06 6.378022258866805420e+11 2.836765200961047363e+11 5.369798000000000000e+06 2.093818625144774246e+10 2.932436088182114868e+11
1.774999999999999946e-07 5.112871000000000000e+06 6.367358133577355957e+11 2.842820366253985596e+11 5.374025000000000000e+06 2.095963345231900024e+10 2.940196958376909180e+11
1.799999999999999971e-07 5.115568000000000000e+06 6.356851458884359131e+11 2.858020754228213501e+11 5.378131000000000000e+06 2.098052331502684021e+10 2.957138920628682861e+11
1.824999999999999997e-07 5.118383000000000000e+06 6.346178830489916992e+11 2.882526309942446899e+11 5.382340000000000000e+06 2.100154045188962555e+10 2.983422357083411865e+11
1.850000000000000022e-07 5.121107000000000000e+06 6.335826369048967285e+11 2.916142655990986938e+11 5.386393000000000000e+06 2.102220065268427658e+10 3.018861421497243652e+11
1.875000000000000048e-07 5.123778000000000000e+06 6.325421792813146973e+11 2.958953446176148682e+11 5.390397000000000000e+06 2.104289604539460754e+10 3.063546402946038818e+11
1.900000000000000073e-07 5.126390000000000000e+06 6.315193743267114258e+11 3.010731624519615479e+11 5.394329000000000000e+06 2.106384766248480225e+10 3.117252428694119873e+11
1.925000000000000098e-07 5.128911000000000000e+06 6.304594286513071289e+11 3.071267294430321655e+11 5.398290000000000000e+06 2.108471490196630859e+10 3.179767290100197144e+11
1.950000000000000124e-07 5.131548000000000000e+06 6.294050290628293457e+11 3.140007323493001709e+11 5.402263000000000000e+06 2.110599076167219925e+10 3.250530270663510132e+11
1.975000000000000149e-07 5.134178000000000000e+06 6.283445578637281494e+11 3.216400134117841797e+11 5.406228000000000000e+06 2.112766740915424347e+10 3.328981652582375488e+11
1.999999999999999909e-07 5.136929000000000000e+06 6.272983987374184570e+11 3.299817208413597412e+11 5.410231000000000000e+06 2.114939380834759903e+10 3.414485107232693481e+11
2.024999999999999935e-07 5.139473000000000000e+06 6.262580083920479736e+11 3.389445029815503540e+11 5.414102000000000000e+06 2.117106744944223404e+10 3.506222127010141602e+11
2.049999999999999960e-07 5.141954000000000000e+06 6.252314292592286377e+11 3.484648110294653320e+11 5.417895000000000000e+06 2.119227388164346313e+10 3.603550817480213623e+11
2.074999999999999986e-07 5.144501000000000000e+06 6.242082089289375000e+11 3.584713765473782349e+11 5.421729000000000000e+06 2.121387049441567993e+10 3.705749792209899902e+11
2.100000000000000011e-07 5.147068000000000000e+06 6.231843798593574219e+11 3.688857681397736816e+11 5.425580000000000000e+06 2.123603071142325592e+10 3.812024112565942993e+11
2.125000000000000036e-07 5.149609000000000000e+06 6.221531955589644775e+11 3.796095602213734741e+11 5.429418000000000000e+06 2.125837598346271133e+10 3.921369163549206543e+11
2.150000000000000062e-07 5.152113000000000000e+06 6.211388148256191406e+11 3.905558973414120483e+11 5.433196000000000000e+06 2.128046456328134537e+10 4.032894857739042969e+11
2.175000000000000087e-07 5.154700000000000000e+06 6.201482120785317383e+11 4.016123977864658813e+11 5.437000000000000000e+06 2.130259736696816254e+10 4.145466822709174194e+11
2.200000000000000112e-07 5.157238000000000000e+06 6.191721925279326172e+11 4.127214144287304688e+11 5.440747000000000000e+06 2.132514673902711105e+10 4.258505361714830322e+11
2.225000000000000138e-07 5.159829000000000000e+06 6.182142021995472412e+11 4.237684597138388062e+11 5.444471000000000000e+06 2.134722811968008423e+10 4.370847811932291870e+11
2.250000000000000163e-07 5.162348000000000000e+06 6.172736245333116455e+11 4.346626401397247925e+11 5.448140000000000000e+06 2.136964567376890564e+10 4.481564214805220947e+11
2.274999999999999924e-07 5.164802000000000000e+06 6.163590532848641357e+11 4.453183983884044189e+11 5.451735000000000000e+06 2.139168123236238861e+10 4.589779593969493408e+11
2.299999999999999949e-07 5.167347000000000000e+06 6.154626944518967285e+11 4.556282807653370972e+11 5.455360000000000000e+06 2.141447233521076965e+10 4.694411574268339233e+11
2.324999999999999974e-07 5.169819000000000000e+06 6.145957106673410645e+11 4.655000507352230835e+11 5.458887000000000000e+06 2.143694229073062134e+10 4.794537100133511963e+11
2.350000000000000000e-07 5.172261000000000000e+06 6.137561522128632812e+11 4.748721037177960205e+11 5.462337000000000000e+06 2.145896217278311157e+10 4.889533854137133789e+11
2.375000000000000025e-07 5.174816000000000000e+06 6.129236394631345215e+11 4.836724598111274414e+11 5.465897000000000000e+06 2.148182080993124390e+10 4.978671764661546631e+11
2.400000000000000315e-07 5.177427000000000000e+06 6.121234589431755371e+11 4.918196341387953491e+11 5.469400000000000000e+06 2.150505930264400864e+10 5.061135705712275391e+11
2.425000000000000076e-07 5.180064000000000000e+06 6.113298864018251953e+11 4.992565987916148071e+11 5.472976000000000000e+06 2.152838079708998489e+10 5.136357843673450928e+11
2.449999999999999836e-07 5.182588000000000000e+06 6.105687012092785645e+11 5.059075787169248047e+11 5.476415000000000000e+06 2.155173967196841431e+10 5.203581947988399048e+11
2.475000000000000126e-07 5.185113000000000000e+06 6.098193974494101562e+11 5.117378537020059204e+11 5.479873000000000000e+06 2.157482365726857376e+10 5.262463594986179199e+11
2.499999999999999887e-07 5.187693000000000000e+06 6.090820756640059814e+11 5.167154697259964600e+11 5.483363000000000000e+06 2.159812654884954834e+10 5.312685172784937744e+11
2.525000000000000177e-07 5.190317000000000000e+06 6.083675370534852295e+11 5.207750646658852539e+11 5.486834000000000000e+06 2.162168551277551270e+10 5.353593231393311157e+11
2.549999999999999938e-07 5.192925000000000000e+06 6.076868662197392578e+11 5.238986292645916138e+11 5.490224000000000000e+06 2.164512819645723724e+10 5.385021865295247192e+11
2.575000000000000228e-07 5.195487000000000000e+06 6.070196438452880859e+11 5.260923594495043945e+11 5.493558000000000000e+06 2.166844720801844025e+10 5.407052110819718018e+11
2.599999999999999988e-07 5.198185000000000000e+06 6.063555637741733398e+11 5.273409737950932007e+11 5.496995000000000000e+06 2.169228942544845963e+10 5.419546421120632324e+11
2.625000000000000278e-07 5.200816000000000000e+06 6.057173793510364990e+11 5.276309203936267700e+11 5.500322000000000000e+06 2.171597373511851501e+10 5.422383789888504639e+11
2.650000000000000039e-07 5.203440000000000000e+06 6.050772563148291016e+11 5.269974802335519409e+11 5.503683000000000000e+06 2.173950567441249847e+10 5.415932476657718506e+11
2.674999999999999800e-07 5.206070000000000000e+06 6.044673504873297119e+11 5.254537278368067627e+11 5.506959000000000000e+06 2.176272148512554169e+10 5.400338010907303467e+11
2.700000000000000090e-07 5.208616000000000000e+06 6.038573923736551514e+11 5.230578403671179199e+11 5.510201000000000000e+06 2.178625551463488007e+10 5.376199153513977051e+11
2.724999999999999850e-07 5.211243000000000000e+06 6.032530873860998535e+11 5.198519770587233887e+11 5.513475000000000000e+06 2.181021191958028412e+10 5.343955094098245850e+11
2.750000000000000140e-07 5.213864000000000000e+06 6.026287697028444824e+11 5.158750794228066406e+11 5.516824000000000000e+06 2.183459952714044952e+10 5.304004380896689453e+11
2.774999999999999901e-07 5.216420000000000000e+06 6.020339418676442871e+11 5.111739211441282349e+11 5.520002000000000000e+06 2.185848126620882416e+10 5.256829534126423950e+11
2.800000000000000191e-07 5.219080000000000000e+06 6.014394378436372070e+11 5.058284529687075195e+11 5.523222000000000000e+06 2.188248925071356583e+10 5.203244560613334351e+11
