# time_tab [s], number_e [$\#$], Ek_e [eV], qV_e [eV], number_i [$\#$], Ek_i [eV], qV_i [eV]
0.000000000000000000e+00 4.999992000000000000e+06 7.497934813796520996e+11 -3.738808590294850826e+09 4.999992000000000000e+06 1.938929057257344055e+10 -3.266713612546397209e+09
2.500000000000000052e-09 4.998408000000000000e+06 7.471472306000898438e+11 -3.734109146558426380e+09 5.006732000000000000e+06 1.941513991618682861e+10 -3.272263780878393173e+09
5.000000000000000105e-09 4.996519000000000000e+06 7.445126414603032227e+11 -3.074343097972473621e+09 5.013251000000000000e+06 1.944020840830509949e+10 -2.622904946166441917e+09
7.500000000000000984e-09 4.994926000000000000e+06 7.419473600194786377e+11 -1.166904432272773027e+09 5.019842000000000000e+06 1.946599717327602768e+10 -7.281446218766621351e+08
1.000000000000000021e-08 4.993527000000000000e+06 7.393990565986481934e+11 1.980408390670164108e+09 5.026489000000000000e+06 1.949165478095883560e+10 2.410078967201534271e+09
1.249999999999999943e-08 4.991761000000000000e+06 7.368119528367056885e+11 6.351271388398963928e+09 5.033020000000000000e+06 1.951707159817622757e+10 6.780689972200550079e+09
1.500000000000000197e-08 4.990108000000000000e+06 7.342630252659343262e+11 1.190446242143268776e+10 5.039473000000000000e+06 1.954193628760984802e+10 1.234647648955624580e+10
1.750000000000000119e-08 4.988578000000000000e+06 7.317398228048916016e+11 1.861006422894884109e+10 5.045905000000000000e+06 1.956656895217040253e+10 1.908146793289134598e+10
2.000000000000000042e-08 4.986886000000000000e+06 7.291995317212148438e+11 2.638844307966313171e+10 5.052203000000000000e+06 1.959099834659784317e+10 2.690929902095354462e+10
2.249999999999999964e-08 4.985615000000000000e+06 7.267228960138171387e+11 3.519450097962836456e+10 5.058478000000000000e+06 1.961522673154164505e+10 3.578748636094180298e+10
2.499999999999999887e-08 4.984482000000000000e+06 7.242757214228540039e+11 4.498352965809977722e+10 5.064772000000000000e+06 1.963950252306194687e+10 4.567428558090747833e+10
2.750000000000000140e-08 4.983283000000000000e+06 7.218352915782546387e+11 5.571091160255086517e+10 5.070944000000000000e+06 1.966345225325233078e+10 5.652647920634538269e+10
3.000000000000000394e-08 4.982252000000000000e+06 7.194171574203105469e+11 6.729948778789376068e+10 5.077078000000000000e+06 1.968713372751705170e+10 6.826774601439156342e+10
3.249999999999999985e-08 4.981322000000000000e+06 7.169942560110318604e+11 7.970262516065405273e+10 5.083170000000000000e+06 1.971053234867742157e+10 8.085175233222958374e+10
3.500000000000000239e-08 4.980691000000000000e+06 7.145915877803034668e+11 9.283347705706430054e+10 5.089330000000000000e+06 1.973401988411692810e+10 9.419138823852522278e+10
3.749999999999999830e-08 4.980307000000000000e+06 7.122037105917033691e+11 1.066281839728651581e+11 5.095482000000000000e+06 1.975771529411627197e+10 1.082214833178817291e+11
4.000000000000000084e-08 4.979859000000000000e+06 7.099121188027319336e+11 1.210070004381211548e+11 5.101344000000000000e+06 1.978027057586842346e+10 1.228611460079407959e+11
4.250000000000000337e-08 4.979724000000000000e+06 7.076425669406694336e+11 1.358852638559775848e+11 5.107258000000000000e+06 1.980331493047402191e+10 1.380239683702007446e+11
4.499999999999999929e-08 4.979652000000000000e+06 7.053612598890666504e+11 1.511792953243067322e+11 5.113134000000000000e+06 1.982591924035697174e+10 1.536235667638013000e+11
4.750000000000000182e-08 4.979741000000000000e+06 7.031265741658701172e+11 1.667907847580341187e+11 5.118923000000000000e+06 1.984875981749050140e+10 1.695581817971623840e+11
4.999999999999999774e-08 4.980316000000000000e+06 7.009438221281296387e+11 1.825968558924626465e+11 5.124835000000000000e+06 1.987196165393711090e+10 1.857015868721110229e+11
5.250000000000000027e-08 4.980970000000000000e+06 6.988034006716032715e+11 1.985349608121383057e+11 5.130651000000000000e+06 1.989529824250881958e+10 2.019884390882967529e+11
5.500000000000000281e-08 4.981656000000000000e+06 6.967062388791770020e+11 2.145148109255587158e+11 5.136274000000000000e+06 1.991724840107166672e+10 2.183247398056004333e+11
5.749999999999999872e-08 4.982516000000000000e+06 6.946562048353436279e+11 2.304740931595707703e+11 5.141887000000000000e+06 1.993946512090674210e+10 2.346438273050857849e+11
6.000000000000000787e-08 4.983734000000000000e+06 6.926508427098367920e+11 2.463250396494734192e+11 5.147630000000000000e+06 1.996207135331439209e+10 2.508537027723547668e+11
6.249999999999999717e-08 4.985069000000000000e+06 6.906969517081760254e+11 2.619562419388102417e+11 5.153242000000000000e+06 1.998434297286064911e+10 2.668390928606517029e+11
6.499999999999999971e-08 4.986471000000000000e+06 6.888018158190451660e+11 2.772685062993923340e+11 5.158758000000000000e+06 2.000650508052268982e+10 2.824972552279011230e+11
6.750000000000000224e-08 4.987986000000000000e+06 6.869351140294514160e+11 2.921677531569326172e+11 5.164268000000000000e+06 2.002883555506303406e+10 2.977308376867565308e+11
7.000000000000000477e-08 4.989848000000000000e+06 6.851453359073671875e+11 3.065730590575504761e+11 5.169847000000000000e+06 2.005082992474254227e+10 3.124547571745631714e+11
7.250000000000000731e-08 4.991667000000000000e+06 6.833971134431229248e+11 3.203851829906815796e+11 5.175336000000000000e+06 2.007273389281858063e+10 3.265658906575009766e+11
7.499999999999999661e-08 4.993601000000000000e+06 6.817072298626826172e+11 3.335182919404827271e+11 5.180751000000000000e+06 2.009530693392488861e+10 3.399764546339179688e+11
7.749999999999999914e-08 4.995603000000000000e+06 6.801056815564852295e+11 3.458831672416146240e+11 5.186059000000000000e+06 2.011666392550993729e+10 3.525951559049744873e+11
8.000000000000000167e-08 4.997864000000000000e+06 6.785575684726997070e+11 3.573987057977858887e+11 5.191420000000000000e+06 2.013833933927860260e+10 3.643389358420809937e+11
8.250000000000000421e-08 5.000161000000000000e+06 6.770712731308948975e+11 3.680133345875532837e+11 5.196666000000000000e+06 2.016037697200292969e+10 3.751552115813489990e+11
8.500000000000000674e-08 5.002499000000000000e+06 6.756555968070749512e+11 3.776650296682460938e+11 5.201835000000000000e+06 2.018147901354029083e+10 3.849814008051848145e+11
8.749999999999999604e-08 5.004963000000000000e+06 6.742728716045296631e+11 3.862949172009426880e+11 5.206999000000000000e+06 2.020259471659284973e+10 3.937583848781589966e+11
8.999999999999999857e-08 5.007512000000000000e+06 6.729877739289512939e+11 3.938254073846162109e+11 5.212028000000000000e+06 2.022378224508978271e+10 4.014091615082230225e+11
9.250000000000000111e-08 5.010123000000000000e+06 6.716855506166728516e+11 4.002699919153284912e+11 5.217206000000000000e+06 2.024532882489548874e+10 4.079485513848651123e+11
9.500000000000000364e-08 5.012816000000000000e+06 6.704589394583569336e+11 4.055720597538256836e+11 5.222260000000000000e+06 2.026646937003237915e+10 4.133211482804733276e+11
9.750000000000000618e-08 5.015585000000000000e+06 6.692764706851173096e+11 4.097231686952069092e+11 5.227284000000000000e+06 2.028743199001688766e+10 4.175197584708129883e+11
9.999999999999999547e-08 5.018450000000000000e+06 6.681539839863397217e+11 4.127258544357238159e+11 5.232275000000000000e+06 2.030807647662902069e+10 4.205498332051194458e+11
1.024999999999999980e-07 5.021301000000000000e+06 6.670538419798773193e+11 4.145625486818949585e+11 5.237191000000000000e+06 2.032915395472010803e+10 4.223969340969512329e+11
1.050000000000000005e-07 5.024126000000000000e+06 6.659653222670761719e+11 4.152818807571047974e+11 5.242100000000000000e+06 2.035014326999126434e+10 4.231122933564714966e+11
1.075000000000000031e-07 5.027118000000000000e+06 6.649226246305666504e+11 4.148920570776185303e+11 5.247006000000000000e+06 2.037109450512311554e+10 4.227068909124793701e+11
1.100000000000000056e-07 5.030126000000000000e+06 6.639066949331394043e+11 4.134252537463954468e+11 5.251860000000000000e+06 2.039172574444849777e+10 4.212163222537999878e+11
1.125000000000000081e-07 5.033177000000000000e+06 6.628964074531329346e+11 4.109274425042896729e+11 5.256711000000000000e+06 2.041257755118669128e+10 4.186891411212598267e+11
1.149999999999999974e-07 5.036338000000000000e+06 6.618915566080631104e+11 4.074348250264421997e+11 5.261605000000000000e+06 2.043391992775300980e+10 4.151646825921514282e+11
1.175000000000000000e-07 5.039587000000000000e+06 6.609143643057064209e+11 4.030121008772750854e+11 5.266521000000000000e+06 2.045588593002546692e+10 4.107110529805504761e+11
1.200000000000000157e-07 5.042730000000000000e+06 6.599368094110571289e+11 3.977544308492306519e+11 5.271353000000000000e+06 2.047715233250642776e+10 4.054252185079831543e+11
1.224999999999999918e-07 5.045810000000000000e+06 6.589928658585889893e+11 3.917154273398715820e+11 5.276018000000000000e+06 2.049770652125991821e+10 3.993632797334005737e+11
1.249999999999999943e-07 5.049010000000000000e+06 6.580484285231074219e+11 3.850221225394567261e+11 5.280715000000000000e+06 2.051797431559383392e+10 3.926545219640955200e+11
1.274999999999999969e-07 5.052158000000000000e+06 6.571031218236699219e+11 3.777490038857591553e+11 5.285367000000000000e+06 2.053876433287809372e+10 3.853757394400032349e+11
1.299999999999999994e-07 5.055376000000000000e+06 6.561380356994967041e+11 3.700189153613432007e+11 5.290089000000000000e+06 2.055998314547243500e+10 3.776512828563578491e+11
1.325000000000000019e-07 5.058473000000000000e+06 6.551655906085498047e+11 3.619213338718929443e+11 5.294725000000000000e+06 2.058081000958170319e+10 3.695714489888309937e+11
1.350000000000000045e-07 5.061546000000000000e+06 6.541909444973161621e+11 3.535512129792094116e+11 5.299304000000000000e+06 2.060140140349577713e+10 3.612316875410259399e+11
1.375000000000000070e-07 5.064746000000000000e+06 6.532053279223889160e+11 3.450152813325601807e+11 5.303945000000000000e+06 2.062217242051707458e+10 3.527385805036520386e+11
1.400000000000000095e-07 5.067981000000000000e+06 6.521977505508197021e+11 3.364418823311920776e+11 5.308628000000000000e+06 2.064306361001382446e+10 3.442206060802434082e+11
1.425000000000000121e-07 5.071175000000000000e+06 6.511755634737634277e+11 3.279363949662863159e+11 5.313280000000000000e+06 2.066439504806681061e+10 3.357822771185515747e+11
1.450000000000000146e-07 5.074304000000000000e+06 6.501608377156767578e+11 3.196076813973322754e+11 5.317857000000000000e+06 2.068503586001107025e+10 3.275319837385573120e+11
1.474999999999999907e-07 5.077540000000000000e+06 6.491443083169062500e+11 3.115642537085498657e+11 5.322414000000000000e+06 2.070583431017237854e+10 3.195782781957892456e+11
1.499999999999999932e-07 5.080668000000000000e+06 6.481312535938439941e+11 3.039031775060917969e+11 5.326895000000000000e+06 2.072627699190893555e+10 3.120173988529761963e+11
1.524999999999999957e-07 5.083895000000000000e+06 6.471087696556730957e+11 2.967429383700714722e+11 5.331450000000000000e+06 2.074693287639114761e+10 3.049674479226419678e+11
1.549999999999999983e-07 5.087144000000000000e+06 6.460808208072302246e+11 2.901830266868224487e+11 5.336017000000000000e+06 2.076789449335837555e+10 2.985270974706503906e+11
1.575000000000000008e-07 5.090213000000000000e+06 6.450497111432937012e+11 2.843035923475974121e+11 5.340430000000000000e+06 2.078857133947561646e+10 2.927762630712020874e+11
1.600000000000000033e-07 5.093224000000000000e+06 6.440117959427519531e+11 2.792170107664609375e+11 5.344812000000000000e+06 2.080949423471451569e+10 2.878263813717000122e+11
1.625000000000000059e-07 5.096157000000000000e+06 6.429890239537983398e+11 2.749684978549863892e+11 5.349063000000000000e+06 2.082951712039059830e+10 2.837206624550609131e+11
1.650000000000000084e-07 5.099104000000000000e+06 6.419789846037634277e+11 2.716329948416034546e+11 5.353289000000000000e+06 2.084969082255384827e+10 2.805334559638239136e+11
1.675000000000000109e-07 5.102089000000000000e+06 6.409385110010019531e+11 2.692984182906135864e+11 5.357608000000000000e+06 2.087071369302892685e+10 2.783533195902867432e+11
1.700000000000000135e-07 5.105039000000000000e+06 6.398871288876873779e+11 2.679777931312496643e+11 5.361921000000000000e+06 2.089147345243668365e+10 2.771928468436827393e+11
1.725000000000000160e-07 5.107894000000000000e+06 6.388427659237440186e+11 2.676915245623329773e+11 5.366146000000000000e+06 2.091226752292603683e+10 2.770719031769949951e+11
1.749999999999999921e-07 5.110613000000000000e+06 6.378050168215123291e+11 2.684567252322941895e+11 5.370234000000000000e+06 2.093249462663338089e+10 2.780068765752186279e+11
1.774999999999999946e-07 5.113485000000000000e+06 6.367495532369909668e+11 2.703043715352225952e+11 5.374471000000000000e+06 2.095368251392222595e+10 2.800280700076692505e+11
1.799999999999999971e-07 5.116257000000000000e+06 6.357029333498894043e+11 2.732221476038350220e+11 5.378576000000000000e+06 2.097472664536426544e+10 2.831233594587464600e+11
1.824999999999999997e-07 5.119001000000000000e+06 6.346567326762955322e+11 2.772045554719362183e+11 5.382711000000000000e+06 2.099576584247466660e+10 2.872877100834219360e+11
1.850000000000000022e-07 5.121637000000000000e+06 6.336396530907202148e+11 2.822378880117969360e+11 5.386666000000000000e+06 2.101600209017606354e+10 2.925068695603935547e+11
1.875000000000000048e-07 5.124262000000000000e+06 6.326069055236500244e+11 2.882790276426952515e+11 5.390633000000000000e+06 2.103665809741043472e+10 2.987379951243337402e+11
1.900000000000000073e-07 5.127022000000000000e+06 6.315494946956066895e+11 2.953152283752302856e+11 5.394745000000000000e+06 2.105815480108872604e+10 3.059681862012584839e+11
1.925000000000000098e-07 5.129679000000000000e+06 6.304888960008190918e+11 3.032599501192928467e+11 5.398768000000000000e+06 2.107936507220845413e+10 3.141099712620125122e+11
1.950000000000000124e-07 5.132278000000000000e+06 6.294357403204311523e+11 3.120600743517191162e+11 5.402735000000000000e+06 2.110066697132342148e+10 3.231100228325170288e+11
1.975000000000000149e-07 5.134943000000000000e+06 6.283919488511108398e+11 3.216422078567238770e+11 5.406715000000000000e+06 2.112180235373894882e+10 3.328948983737573853e+11
1.999999999999999909e-07 5.137490000000000000e+06 6.273573665288657227e+11 3.319106850190490723e+11 5.410613000000000000e+06 2.114358844562801361e+10 3.433693825272661743e+11
2.024999999999999935e-07 5.140057000000000000e+06 6.263081808355715332e+11 3.427908615279195557e+11 5.414537000000000000e+06 2.116508910609654617e+10 3.544577503734921265e+11
2.049999999999999960e-07 5.142685000000000000e+06 6.252797148574730225e+11 3.541769483539049072e+11 5.418439000000000000e+06 2.118666213639926147e+10 3.660527410838536987e+11
2.074999999999999986e-07 5.145328000000000000e+06 6.242389860658459473e+11 3.659703492222907104e+11 5.422379000000000000e+06 2.120884284633375549e+10 3.780550179882227173e+11
2.100000000000000011e-07 5.147890000000000000e+06 6.232140724743956299e+11 3.780735164329406128e+11 5.426232000000000000e+06 2.123119510319341278e+10 3.903666017253248291e+11
2.125000000000000036e-07 5.150379000000000000e+06 6.222051875539718018e+11 3.903781676465935059e+11 5.430007000000000000e+06 2.125304171677763367e+10 4.028780137276484375e+11
2.150000000000000062e-07 5.152884000000000000e+06 6.212117107768548584e+11 4.027733023005078735e+11 5.433731000000000000e+06 2.127462901143157959e+10 4.154775633898727417e+11
2.175000000000000087e-07 5.155305000000000000e+06 6.202241097692252197e+11 4.151662078410520020e+11 5.437421000000000000e+06 2.129624893099787903e+10 4.280711171957390137e+11
2.200000000000000112e-07 5.157906000000000000e+06 6.192380491796604004e+11 4.274571622949817505e+11 5.441225000000000000e+06 2.131888684767622757e+10 4.405570302555491943e+11
2.225000000000000138e-07 5.160464000000000000e+06 6.182644694785937500e+11 4.395162668686233521e+11 5.444991000000000000e+06 2.134124397613600922e+10 4.528035895598262329e+11
2.250000000000000163e-07 5.163026000000000000e+06 6.172849198893497314e+11 4.512736916485445557e+11 5.448776000000000000e+06 2.136424080715624237e+10 4.647395635812187500e+11
2.274999999999999924e-07 5.165525000000000000e+06 6.163690783802608643e+11 4.625874411954301147e+11 5.452418000000000000e+06 2.138688880782740784e+10 4.762217176503977051e+11
2.299999999999999949e-07 5.168027000000000000e+06 6.154534710721424561e+11 4.733835643573247681e+11 5.456036000000000000e+06 2.140935905414649582e+10 4.871746675429391479e+11
2.324999999999999974e-07 5.170661000000000000e+06 6.145585580090681152e+11 4.835626487760311279e+11 5.459718000000000000e+06 2.143205419911328506e+10 4.974982840651663818e+11
2.350000000000000000e-07 5.173211000000000000e+06 6.136853695469272461e+11 4.930278121672745972e+11 5.463362000000000000e+06 2.145493714469871521e+10 5.070953932764645386e+11
2.375000000000000025e-07 5.175646000000000000e+06 6.128602545620513916e+11 5.016991871307284546e+11 5.466831000000000000e+06 2.147735329799761963e+10 5.158849474521704102e+11
2.400000000000000315e-07 5.178100000000000000e+06 6.120439048322102051e+11 5.095091718481678467e+11 5.470290000000000000e+06 2.149993098825011826e+10 5.237986196466510010e+11
2.425000000000000076e-07 5.180662000000000000e+06 6.112595052318908691e+11 5.164023431031189575e+11 5.473796000000000000e+06 2.152275597795960999e+10 5.307814633821094360e+11
2.449999999999999836e-07 5.183172000000000000e+06 6.104890666272050781e+11 5.223328783192669678e+11 5.477241000000000000e+06 2.154552800649065781e+10 5.367877142809383545e+11
2.475000000000000126e-07 5.185767000000000000e+06 6.097352187601010742e+11 5.272642107289942627e+11 5.480726000000000000e+06 2.156885702157833099e+10 5.417806568147012329e+11
2.499999999999999887e-07 5.188244000000000000e+06 6.090058956428532715e+11 5.311452049900872803e+11 5.484102000000000000e+06 2.159177848353601837e+10 5.457099315932403564e+11
2.525000000000000177e-07 5.190859000000000000e+06 6.082893661639648438e+11 5.339677523931519775e+11 5.487546000000000000e+06 2.161504400301847839e+10 5.485683327814872437e+11
2.549999999999999938e-07 5.193555000000000000e+06 6.075910669592138672e+11 5.357245797799125977e+11 5.491022000000000000e+06 2.163888842038080597e+10 5.503499307722678223e+11
2.575000000000000228e-07 5.196182000000000000e+06 6.069167041608596191e+11 5.363971130603820801e+11 5.494405000000000000e+06 2.166249621337765503e+10 5.510368298564991455e+11
2.599999999999999988e-07 5.198866000000000000e+06 6.062399438016152344e+11 5.360064369180762939e+11 5.497865000000000000e+06 2.168665126647804260e+10 5.506507146180604248e+11
2.625000000000000278e-07 5.201546000000000000e+06 6.055946044530358887e+11 5.345762431493721924e+11 5.501248000000000000e+06 2.171031195572128296e+10 5.492173132346175537e+11
2.650000000000000039e-07 5.204100000000000000e+06 6.049720272664365234e+11 5.321382933938546143e+11 5.504510000000000000e+06 2.173388950463238525e+10 5.467703769212839355e+11
2.674999999999999800e-07 5.206761000000000000e+06 6.043449407806247559e+11 5.287546900346420898e+11 5.507843000000000000e+06 2.175754765958785248e+10 5.433739713785874023e+11
2.700000000000000090e-07 5.209338000000000000e+06 6.037356523618658447e+11 5.244654332130540161e+11 5.511083000000000000e+06 2.178175109026815033e+10 5.390690731433270264e+11
2.724999999999999850e-07 5.211954000000000000e+06 6.031355298137351074e+11 5.193480509441751709e+11 5.514318000000000000e+06 2.180520111674562073e+10 5.339345124955603638e+11
2.750000000000000140e-07 5.214572000000000000e+06 6.025284216879990234e+11 5.134544471249155884e+11 5.517573000000000000e+06 2.182921427112058258e+10 5.280237373689238281e+11
2.774999999999999901e-07 5.217179000000000000e+06 6.019253881610762939e+11 5.068509221323245850e+11 5.520776000000000000e+06 2.185306935235604858e+10 5.214043047199245605e+11
2.800000000000000191e-07 5.219796000000000000e+06 6.013273863076864014e+11 4.996476771371891479e+11 5.523984000000000000e+06 2.187721889903497314e+10 5.141876792250299683e+11
