# time_tab [s], number_e [#], Ek_e [eV], qV_e [eV], number_i [#], Ek_i [eV], qV_i [eV]
0.000000000000000000e+00 4.999998000000000000e+06 7.493324067906024170e+11 -3.324474214055996704e+10 4.999998000000000000e+06 1.939216298848680115e+10 -3.273109936691768265e+10
2.500000000000000052e-09 4.991350000000000000e+06 7.476153534345522461e+11 -3.323461633864658737e+10 4.999972000000000000e+06 1.939205546560807037e+10 -3.273112822964360428e+10
5.000000000000000105e-09 4.982929000000000000e+06 7.459534087570000000e+11 -3.231763143390471649e+10 4.999942000000000000e+06 1.939191747701541138e+10 -3.182520208310498810e+10
7.500000000000000984e-09 4.974575000000000000e+06 7.442906841043739014e+11 -2.986971353172544479e+10 4.999913000000000000e+06 1.939180403509630203e+10 -2.939184274529734421e+10
1.000000000000000021e-08 4.966345000000000000e+06 7.426637789971705322e+11 -2.590742007178443527e+10 4.999877000000000000e+06 1.939168039783940125e+10 -2.544140747811350250e+10
1.249999999999999943e-08 4.957990000000000000e+06 7.410163832164631348e+11 -2.045486951614504242e+10 4.999846000000000000e+06 1.939157289704210663e+10 -1.999268178747080994e+10
1.500000000000000197e-08 4.949809000000000000e+06 7.393713446996138916e+11 -1.356757222900136185e+10 4.999822000000000000e+06 1.939146742522756195e+10 -1.309685105063629532e+10
1.750000000000000119e-08 4.941788000000000000e+06 7.377344767299892578e+11 -5.300982436752513885e+09 4.999792000000000000e+06 1.939137395537628174e+10 -4.805061449359779358e+09
2.000000000000000042e-08 4.933846000000000000e+06 7.360974552032924805e+11 4.279952972753918648e+09 4.999749000000000000e+06 1.939121661171996689e+10 4.820790624185491562e+09
2.249999999999999964e-08 4.926131000000000000e+06 7.344909893725499268e+11 1.509625101231992531e+10 4.999723000000000000e+06 1.939112523287373352e+10 1.570408178450306320e+10
2.499999999999999887e-08 4.918761000000000000e+06 7.329329056296270752e+11 2.709060926281997299e+10 4.999689000000000000e+06 1.939102167992870712e+10 2.779023147097706223e+10
2.750000000000000140e-08 4.911483000000000000e+06 7.313680171722482910e+11 4.021178609514456177e+10 4.999660000000000000e+06 1.939085420117727661e+10 4.103077098965954590e+10
3.000000000000000394e-08 4.904292000000000000e+06 7.297733591034516602e+11 5.438005201227136230e+10 4.999623000000000000e+06 1.939069975746271515e+10 5.534806996081389618e+10
3.249999999999999985e-08 4.897333000000000000e+06 7.282104762010336914e+11 6.947168597247746277e+10 4.999602000000000000e+06 1.939062967743563461e+10 7.061929452831173706e+10
3.500000000000000239e-08 4.890641000000000000e+06 7.266628463945344238e+11 8.539945301170022583e+10 4.999568000000000000e+06 1.939052771035617447e+10 8.675768785827206421e+10
3.749999999999999830e-08 4.883877000000000000e+06 7.250771284723308105e+11 1.020662216789173431e+11 4.999535000000000000e+06 1.939045488298482895e+10 1.036659424526200409e+11
4.000000000000000084e-08 4.877447000000000000e+06 7.235171546397211914e+11 1.193498380713876343e+11 4.999499000000000000e+06 1.939040772060661316e+10 1.212202807536964722e+11
4.250000000000000337e-08 4.871213000000000000e+06 7.219966118747404785e+11 1.371254988639100494e+11 4.999472000000000000e+06 1.939045354863831711e+10 1.392931578481535645e+11
4.499999999999999929e-08 4.865309000000000000e+06 7.205134191697512207e+11 1.552953754407259827e+11 4.999443000000000000e+06 1.939051334954458618e+10 1.577853512512214355e+11
4.750000000000000182e-08 4.859512000000000000e+06 7.190322415777591553e+11 1.737558764357938538e+11 4.999420000000000000e+06 1.939062293679352951e+10 1.765918105197488403e+11
4.999999999999999774e-08 4.854095000000000000e+06 7.176076227624909668e+11 1.923818696990798645e+11 4.999382000000000000e+06 1.939069874795700836e+10 1.955839681567014160e+11
5.250000000000000027e-08 4.848609000000000000e+06 7.161765798579677734e+11 2.110667672623183594e+11 4.999351000000000000e+06 1.939088313097596741e+10 2.146508831902801208e+11
5.500000000000000281e-08 4.843484000000000000e+06 7.147892659568371582e+11 2.296881573732157593e+11 4.999311000000000000e+06 1.939108706623545456e+10 2.336658996051406555e+11
5.749999999999999872e-08 4.838517000000000000e+06 7.134301535415270996e+11 2.481099573606932678e+11 4.999276000000000000e+06 1.939137833285540009e+10 2.524885555417783508e+11
6.000000000000000787e-08 4.833837000000000000e+06 7.121279328482004395e+11 2.662248221271697083e+11 4.999240000000000000e+06 1.939173954242249298e+10 2.710069044291040955e+11
6.249999999999999717e-08 4.829216000000000000e+06 7.108498560979199219e+11 2.839182146811016846e+11 4.999213000000000000e+06 1.939222877089762115e+10 2.891018726044852295e+11
6.499999999999999971e-08 4.824930000000000000e+06 7.096345076631341553e+11 3.010753633385636597e+11 4.999179000000000000e+06 1.939273030771232605e+10 3.066537622248018799e+11
6.750000000000000224e-08 4.820737000000000000e+06 7.084504039533217773e+11 3.175921738018000488e+11 4.999143000000000000e+06 1.939329949453277588e+10 3.235534799539057617e+11
7.000000000000000477e-08 4.816739000000000000e+06 7.073526556280983887e+11 3.333731065332177124e+11 4.999120000000000000e+06 1.939401857187510681e+10 3.397013316637696533e+11
7.250000000000000731e-08 4.812817000000000000e+06 7.062671568320457764e+11 3.483164848584323120e+11 4.999065000000000000e+06 1.939469860968096161e+10 3.549921359567507324e+11
7.499999999999999661e-08 4.809159000000000000e+06 7.052702120714104004e+11 3.623309970359339600e+11 4.999024000000000000e+06 1.939551961050063705e+10 3.693309261054493408e+11
7.749999999999999914e-08 4.805699000000000000e+06 7.043247568650242920e+11 3.753377235293671875e+11 4.998984000000000000e+06 1.939647281137069321e+10 3.826356984695170288e+11
8.000000000000000167e-08 4.802400000000000000e+06 7.034509732203258057e+11 3.872658261571221924e+11 4.998950000000000000e+06 1.939751173454782867e+10 3.948339240189548340e+11
8.250000000000000421e-08 4.799169000000000000e+06 7.026226232952988281e+11 3.980468005699246826e+11 4.998902000000000000e+06 1.939860788734289551e+10 4.058560237295003052e+11
8.500000000000000674e-08 4.796150000000000000e+06 7.018626856525581055e+11 4.076285938215052490e+11 4.998860000000000000e+06 1.939982950133955765e+10 4.156489314766253052e+11
8.749999999999999604e-08 4.793232000000000000e+06 7.011472961303088379e+11 4.159719638249694214e+11 4.998822000000000000e+06 1.940111497616809845e+10 4.241732637996386719e+11
8.999999999999999857e-08 4.790514000000000000e+06 7.005000068465207520e+11 4.230377487251871338e+11 4.998776000000000000e+06 1.940250567924219513e+10 4.313900406211441650e+11
9.250000000000000111e-08 4.787719000000000000e+06 6.998647334128818359e+11 4.288037061948361816e+11 4.998735000000000000e+06 1.940400433044392014e+10 4.372776713764208374e+11
9.500000000000000364e-08 4.785137000000000000e+06 6.993107331252489014e+11 4.332524985560955200e+11 4.998682000000000000e+06 1.940560552162644958e+10 4.418198953932125244e+11
9.750000000000000618e-08 4.782656000000000000e+06 6.987945730182976074e+11 4.363765658765690308e+11 4.998633000000000000e+06 1.940730315700388336e+10 4.450108291249187622e+11
9.999999999999999547e-08 4.780265000000000000e+06 6.983271475255874023e+11 4.381918475385335083e+11 4.998596000000000000e+06 1.940918548720269012e+10 4.468690124382648315e+11
1.024999999999999980e-07 4.777956000000000000e+06 6.978879545774099121e+11 4.387289611950592041e+11 4.998558000000000000e+06 1.941111024525271606e+10 4.474281228624545898e+11
1.050000000000000005e-07 4.775807000000000000e+06 6.975026173764534912e+11 4.380175825312092896e+11 4.998519000000000000e+06 1.941314413627836609e+10 4.467209839627410278e+11
1.075000000000000031e-07 4.773720000000000000e+06 6.971254346596967773e+11 4.361090047656947632e+11 4.998469000000000000e+06 1.941519010880484390e+10 4.448028230704675293e+11
1.100000000000000056e-07 4.771729000000000000e+06 6.967837914060822754e+11 4.330627184330325317e+11 4.998424000000000000e+06 1.941736723459621811e+10 4.417364998818063965e+11
1.125000000000000081e-07 4.769705000000000000e+06 6.964410261494340820e+11 4.289273928309312134e+11 4.998374000000000000e+06 1.941954851742227936e+10 4.375740456806147461e+11
1.149999999999999974e-07 4.767769000000000000e+06 6.961024098105156250e+11 4.237806665569418335e+11 4.998331000000000000e+06 1.942190508641945648e+10 4.323956998687294312e+11
1.175000000000000000e-07 4.765940000000000000e+06 6.957923540861108398e+11 4.176968039517943115e+11 4.998277000000000000e+06 1.942429015473841858e+10 4.262787373459249878e+11
1.200000000000000157e-07 4.764190000000000000e+06 6.954852811074782715e+11 4.107799933845539551e+11 4.998234000000000000e+06 1.942686161138499451e+10 4.193317699128345947e+11
1.224999999999999918e-07 4.762458000000000000e+06 6.951831268013773193e+11 4.031357837485781860e+11 4.998190000000000000e+06 1.942951557255843353e+10 4.116633354924415894e+11
1.249999999999999943e-07 4.760737000000000000e+06 6.948689136384091797e+11 3.948630891005649414e+11 4.998139000000000000e+06 1.943217929599365234e+10 4.033744417406009521e+11
1.274999999999999969e-07 4.759082000000000000e+06 6.945477031867211914e+11 3.860731775766299438e+11 4.998079000000000000e+06 1.943482124334323883e+10 3.945782886871651611e+11
1.299999999999999994e-07 4.757427000000000000e+06 6.942284498586522217e+11 3.768793109452937622e+11 4.998026000000000000e+06 1.943757961209511566e+10 3.853901652348375854e+11
1.325000000000000019e-07 4.755697000000000000e+06 6.938636713010633545e+11 3.674050137152966309e+11 4.997973000000000000e+06 1.944039341464723206e+10 3.759345834205458984e+11
1.350000000000000045e-07 4.754082000000000000e+06 6.935156403430815430e+11 3.577570094713079834e+11 4.997926000000000000e+06 1.944336348961346436e+10 3.663185407372192383e+11
1.375000000000000070e-07 4.752519000000000000e+06 6.931620693389887695e+11 3.480586686406033325e+11 4.997855000000000000e+06 1.944632964463830566e+10 3.566660233037103882e+11
1.400000000000000095e-07 4.750991000000000000e+06 6.927912078076477051e+11 3.384417295802418213e+11 4.997808000000000000e+06 1.944949175110807037e+10 3.471095389197329102e+11
1.425000000000000121e-07 4.749367000000000000e+06 6.923948948635913086e+11 3.290282181805488892e+11 4.997758000000000000e+06 1.945275539270231628e+10 3.377709812394823608e+11
1.450000000000000146e-07 4.747771000000000000e+06 6.919792016135789795e+11 3.199242305317764282e+11 4.997691000000000000e+06 1.945606449117591476e+10 3.287552930881856689e+11
1.474999999999999907e-07 4.746227000000000000e+06 6.915723787223669434e+11 3.112359194496153564e+11 4.997633000000000000e+06 1.945944313553590393e+10 3.201681689151675415e+11
1.499999999999999932e-07 4.744626000000000000e+06 6.911299805136718750e+11 3.030846728266945801e+11 4.997577000000000000e+06 1.946297927028443146e+10 3.121305116311932983e+11
1.524999999999999957e-07 4.743190000000000000e+06 6.907138374026773682e+11 2.955642514431748657e+11 4.997516000000000000e+06 1.946663060068867493e+10 3.047350194733599854e+11
1.549999999999999983e-07 4.741584000000000000e+06 6.902623239316435547e+11 2.887835656613790283e+11 4.997458000000000000e+06 1.947037399046846008e+10 2.980903512086602173e+11
1.575000000000000008e-07 4.740073000000000000e+06 6.898112634151401367e+11 2.828294031011093140e+11 4.997404000000000000e+06 1.947425401422732544e+10 2.922824552855515747e+11
1.600000000000000033e-07 4.738490000000000000e+06 6.893370832572534180e+11 2.777782640400838623e+11 4.997359000000000000e+06 1.947833223797311401e+10 2.873862226799200439e+11
1.625000000000000059e-07 4.736953000000000000e+06 6.888644244515175781e+11 2.736962733107165527e+11 4.997291000000000000e+06 1.948231453588356018e+10 2.834675088580904541e+11
1.650000000000000084e-07 4.735494000000000000e+06 6.884002623278222656e+11 2.706509893968582153e+11 4.997233000000000000e+06 1.948655557014317322e+10 2.805939910471364746e+11
1.675000000000000109e-07 4.733918000000000000e+06 6.878975121765242920e+11 2.686936000009507751e+11 4.997165000000000000e+06 1.949085892049251175e+10 2.788153061744754639e+11
1.700000000000000135e-07 4.732328000000000000e+06 6.873914769918095703e+11 2.678640835254530334e+11 4.997100000000000000e+06 1.949533436384322357e+10 2.781701448186052246e+11
1.725000000000000160e-07 4.730810000000000000e+06 6.868886683993244629e+11 2.681820947944374390e+11 4.997022000000000000e+06 1.949987053889486694e+10 2.786784929797903442e+11
1.749999999999999921e-07 4.729161000000000000e+06 6.863474148146010742e+11 2.696657382768105164e+11 4.996958000000000000e+06 1.950466085797587585e+10 2.803589975516515503e+11
1.774999999999999946e-07 4.727561000000000000e+06 6.858099584264023438e+11 2.723175610515774231e+11 4.996886000000000000e+06 1.950960072066579056e+10 2.832129953463380127e+11
1.799999999999999971e-07 4.725991000000000000e+06 6.852832501722995605e+11 2.761112948650502319e+11 4.996823000000000000e+06 1.951477509928946686e+10 2.872140763516456909e+11
1.824999999999999997e-07 4.724390000000000000e+06 6.847352885373431396e+11 2.810435840866807251e+11 4.996765000000000000e+06 1.952013018071063232e+10 2.923592650383304443e+11
1.850000000000000022e-07 4.722774000000000000e+06 6.841824774151301270e+11 2.870815668024398193e+11 4.996691000000000000e+06 1.952559021151039886e+10 2.986164853699320068e+11
1.875000000000000048e-07 4.721157000000000000e+06 6.836205340480411377e+11 2.941833648132544556e+11 4.996618000000000000e+06 1.953120484832190323e+10 3.059442165005811768e+11
1.900000000000000073e-07 4.719518000000000000e+06 6.830516645904080811e+11 3.022945029740796509e+11 4.996540000000000000e+06 1.953692559443511581e+10 3.142878653211665039e+11
1.925000000000000098e-07 4.717899000000000000e+06 6.824815593633804932e+11 3.113585114609329224e+11 4.996467000000000000e+06 1.954299286991987610e+10 3.235907458452194214e+11
1.950000000000000124e-07 4.716323000000000000e+06 6.819057202850986328e+11 3.212987378297919922e+11 4.996395000000000000e+06 1.954917424953204346e+10 3.337756920992520752e+11
1.975000000000000149e-07 4.714677000000000000e+06 6.813064909182900391e+11 3.320344989071773071e+11 4.996322000000000000e+06 1.955562198745200729e+10 3.447623313733582153e+11
1.999999999999999909e-07 4.713085000000000000e+06 6.807215547705881348e+11 3.434800787725947266e+11 4.996237000000000000e+06 1.956225420605603027e+10 3.564647876349505615e+11
2.024999999999999935e-07 4.711450000000000000e+06 6.801156167979797363e+11 3.555483411910589600e+11 4.996148000000000000e+06 1.956898608257612991e+10 3.687955296653586426e+11
2.049999999999999960e-07 4.709864000000000000e+06 6.795144766774516602e+11 3.681394525311795044e+11 4.996079000000000000e+06 1.957610914601498795e+10 3.816538195047310181e+11
2.074999999999999986e-07 4.708235000000000000e+06 6.789140561272390137e+11 3.811518967497344360e+11 4.996011000000000000e+06 1.958344074074463272e+10 3.949368778913330078e+11
2.100000000000000011e-07 4.706560000000000000e+06 6.783004600982463379e+11 3.944701178191630859e+11 4.995925000000000000e+06 1.959090989365219879e+10 4.085279277613071899e+11
2.125000000000000036e-07 4.705030000000000000e+06 6.777116824621508789e+11 4.079776009671511230e+11 4.995843000000000000e+06 1.959864064610424042e+10 4.223096156710408325e+11
2.150000000000000062e-07 4.703497000000000000e+06 6.771277444868947754e+11 4.215673153590969849e+11 4.995747000000000000e+06 1.960640450126982880e+10 4.361742026334222412e+11
2.175000000000000087e-07 4.701949000000000000e+06 6.765373082993687744e+11 4.351372490304045410e+11 4.995641000000000000e+06 1.961428250690462112e+10 4.500184711510443115e+11
2.200000000000000112e-07 4.700372000000000000e+06 6.759390831268023682e+11 4.485769388484296265e+11 4.995551000000000000e+06 1.962263759831815338e+10 4.637296633328036499e+11
2.225000000000000138e-07 4.698849000000000000e+06 6.753703705591833496e+11 4.617634171182788696e+11 4.995458000000000000e+06 1.963120258697630692e+10 4.771824690721998291e+11
2.250000000000000163e-07 4.697337000000000000e+06 6.748053869400874023e+11 4.745859598737780151e+11 4.995393000000000000e+06 1.964019454981857300e+10 4.902640350427569580e+11
2.274999999999999924e-07 4.695985000000000000e+06 6.742824559054245605e+11 4.869502255032626953e+11 4.995296000000000000e+06 1.964915086949397278e+10 5.028797394776903076e+11
2.299999999999999949e-07 4.694583000000000000e+06 6.737587439628696289e+11 4.987720717187909546e+11 4.995215000000000000e+06 1.965847299123805237e+10 5.149440548802757568e+11
2.324999999999999974e-07 4.693211000000000000e+06 6.732583428445034180e+11 5.099471363789621582e+11 4.995118000000000000e+06 1.966783169587332916e+10 5.263505796785079956e+11
2.350000000000000000e-07 4.691821000000000000e+06 6.727677611421043701e+11 5.203998828449073486e+11 4.995006000000000000e+06 1.967735414203994751e+10 5.370224541000360718e+11
2.375000000000000025e-07 4.690484000000000000e+06 6.723032431643234863e+11 5.300335875385897217e+11 4.994923000000000000e+06 1.968731587477579880e+10 5.468616059615419922e+11
2.400000000000000315e-07 4.689133000000000000e+06 6.718466102081267090e+11 5.387868424849491577e+11 4.994833000000000000e+06 1.969750883198566055e+10 5.558055421644743652e+11
2.425000000000000076e-07 4.687832000000000000e+06 6.714129444564592285e+11 5.465895809229966431e+11 4.994731000000000000e+06 1.970776834884346771e+10 5.637823485723912354e+11
2.449999999999999836e-07 4.686586000000000000e+06 6.710167436253446045e+11 5.533844702077581787e+11 4.994649000000000000e+06 1.971846354370102692e+10 5.707342051468359375e+11
2.475000000000000126e-07 4.685391000000000000e+06 6.706505718464375000e+11 5.591294505046256104e+11 4.994558000000000000e+06 1.972936263829815292e+10 5.766194247212827148e+11
2.499999999999999887e-07 4.684035000000000000e+06 6.702641631218273926e+11 5.638042565990292969e+11 4.994456000000000000e+06 1.974028410413919830e+10 5.814170609922658691e+11
2.525000000000000177e-07 4.682878000000000000e+06 6.699435763890333252e+11 5.673701192713950195e+11 4.994352000000000000e+06 1.975146652263329315e+10 5.850876546325560303e+11
2.549999999999999938e-07 4.681717000000000000e+06 6.696358464436728516e+11 5.698143339865397949e+11 4.994266000000000000e+06 1.976295237299035263e+10 5.876198535942933350e+11
2.575000000000000228e-07 4.680626000000000000e+06 6.693466141052429199e+11 5.711494169645468750e+11 4.994178000000000000e+06 1.977474487845279694e+10 5.890272092885737305e+11
2.599999999999999988e-07 4.679596000000000000e+06 6.690910821669199219e+11 5.713755955247764893e+11 4.994075000000000000e+06 1.978649893226351166e+10 5.893109291811688232e+11
2.625000000000000278e-07 4.678520000000000000e+06 6.688362447821013184e+11 5.705255414033111572e+11 4.993975000000000000e+06 1.979842367642056656e+10 5.885053886937658691e+11
2.650000000000000039e-07 4.677489000000000000e+06 6.685953680734655762e+11 5.686221973673465576e+11 4.993865000000000000e+06 1.981046050192693329e+10 5.866347989157667236e+11
2.674999999999999800e-07 4.676447000000000000e+06 6.683715370550610352e+11 5.656995098854929199e+11 4.993768000000000000e+06 1.982279629770783615e+10 5.837343531365156250e+11
2.700000000000000090e-07 4.675444000000000000e+06 6.681542542189218750e+11 5.618116791332844238e+11 4.993677000000000000e+06 1.983542950968764496e+10 5.798596704149085693e+11
2.724999999999999850e-07 4.674497000000000000e+06 6.679688268696997070e+11 5.570150448270499268e+11 4.993573000000000000e+06 1.984818648243963623e+10 5.750691178977275391e+11
2.750000000000000140e-07 4.673550000000000000e+06 6.677802889231071777e+11 5.513801012575479736e+11 4.993455000000000000e+06 1.986094671132689667e+10 5.694359361717246094e+11
2.774999999999999901e-07 4.672680000000000000e+06 6.676053627605153809e+11 5.449848787869166870e+11 4.993336000000000000e+06 1.987381181115024948e+10 5.630409619821263428e+11
2.800000000000000191e-07 4.671754000000000000e+06 6.674178743216173096e+11 5.379159940631176147e+11 4.993231000000000000e+06 1.988707759091371155e+10 5.559722210387512207e+11
