# time_tab [s], number_e [#], Ek_e [eV], qV_e [eV], number_i [#], Ek_i [eV], qV_i [eV]
0.000000000000000000e+00 4.999998000000000000e+06 7.497603063645214844e+11 2.760820846424877930e+10 4.999998000000000000e+06 1.939772985180496216e+10 2.809633701958336258e+10
2.500000000000000052e-09 4.991643000000000000e+06 7.480982565462609863e+11 2.761785010784915543e+10 4.999968000000000000e+06 1.939756024855143738e+10 2.809636705846406555e+10
5.000000000000000105e-09 4.983383000000000000e+06 7.464679964221616211e+11 2.784792907801958466e+10 4.999933000000000000e+06 1.939739600532273865e+10 2.831666027120769119e+10
7.500000000000000984e-09 4.974941000000000000e+06 7.448063642821098633e+11 2.902628263062941360e+10 4.999895000000000000e+06 1.939721328025819778e+10 2.948281188998823547e+10
1.000000000000000021e-08 4.966650000000000000e+06 7.431302803950319824e+11 3.113987197057234573e+10 4.999855000000000000e+06 1.939703274806464386e+10 3.158783039716370392e+10
1.249999999999999943e-08 4.958288000000000000e+06 7.414435282737429199e+11 3.414375334093465805e+10 4.999817000000000000e+06 1.939685897741455841e+10 3.459122455868152618e+10
1.500000000000000197e-08 4.950153000000000000e+06 7.398119218303129883e+11 3.801587533831844330e+10 4.999794000000000000e+06 1.939679064547681808e+10 3.847492240798732758e+10
1.750000000000000119e-08 4.942373000000000000e+06 7.382273909724025879e+11 4.274828098303334808e+10 4.999770000000000000e+06 1.939669665902590179e+10 4.323533659792782593e+10
2.000000000000000042e-08 4.934566000000000000e+06 7.366283129786821289e+11 4.833023544997119141e+10 4.999735000000000000e+06 1.939651735006388092e+10 4.886533864004698944e+10
2.249999999999999964e-08 4.926893000000000000e+06 7.350286279721281738e+11 5.476297326275804901e+10 4.999709000000000000e+06 1.939644266775663376e+10 5.536904726926640320e+10
2.499999999999999887e-08 4.919175000000000000e+06 7.333835357203333740e+11 6.198401887074913788e+10 4.999682000000000000e+06 1.939637398893323517e+10 6.268620858007734680e+10
2.750000000000000140e-08 4.911748000000000000e+06 7.317831867669333496e+11 6.997024851947689819e+10 4.999662000000000000e+06 1.939632531061061096e+10 7.079532836888108826e+10
3.000000000000000394e-08 4.904638000000000000e+06 7.302197183294636230e+11 7.868177949809695435e+10 4.999634000000000000e+06 1.939623876255776978e+10 7.965839870223628235e+10
3.249999999999999985e-08 4.897740000000000000e+06 7.286627378342611084e+11 8.808754184898031616e+10 4.999610000000000000e+06 1.939619340287562180e+10 8.924540136055427551e+10
3.500000000000000239e-08 4.890948000000000000e+06 7.271012761805749512e+11 9.815056030929574585e+10 4.999584000000000000e+06 1.939617752374814987e+10 9.951930298346626282e+10
3.749999999999999830e-08 4.884341000000000000e+06 7.255428195180368652e+11 1.088496277514951782e+11 4.999545000000000000e+06 1.939605685043324280e+10 1.104579577207106323e+11
4.000000000000000084e-08 4.878012000000000000e+06 7.240159734041297607e+11 1.201110558398526154e+11 4.999514000000000000e+06 1.939607767366446304e+10 1.219862554117106781e+11
4.250000000000000337e-08 4.871836000000000000e+06 7.225169859318891602e+11 1.318900870615868073e+11 4.999472000000000000e+06 1.939600057051858139e+10 1.340574635665116882e+11
4.499999999999999929e-08 4.865895000000000000e+06 7.210345864341572266e+11 1.441388194250682983e+11 4.999439000000000000e+06 1.939603145148436356e+10 1.466211296163986511e+11
4.750000000000000182e-08 4.860227000000000000e+06 7.195913236454077148e+11 1.568031917134646301e+11 4.999411000000000000e+06 1.939613378161805725e+10 1.596201400701203308e+11
4.999999999999999774e-08 4.854693000000000000e+06 7.181541057109787598e+11 1.698135649110261536e+11 4.999377000000000000e+06 1.939627505562178802e+10 1.729812276568599854e+11
5.250000000000000027e-08 4.849218000000000000e+06 7.167327093966757812e+11 1.831209789273098145e+11 4.999341000000000000e+06 1.939640634720168304e+10 1.866512545124774475e+11
5.500000000000000281e-08 4.844202000000000000e+06 7.154065662313654785e+11 1.966315644297772827e+11 4.999316000000000000e+06 1.939670083531796265e+10 2.005323267950918579e+11
5.749999999999999872e-08 4.839329000000000000e+06 7.141054417819738770e+11 2.102952058831784363e+11 4.999291000000000000e+06 1.939701002715964127e+10 2.145713680657738953e+11
6.000000000000000787e-08 4.834662000000000000e+06 7.128306807753879395e+11 2.240651530546570129e+11 4.999251000000000000e+06 1.939730860647898483e+10 2.287181925397879028e+11
6.249999999999999717e-08 4.830127000000000000e+06 7.116056325813952637e+11 2.378587356953790283e+11 4.999216000000000000e+06 1.939772541021142578e+10 2.428857863711661682e+11
6.499999999999999971e-08 4.825930000000000000e+06 7.104556347020699463e+11 2.516019621348683777e+11 4.999181000000000000e+06 1.939822562710678864e+10 2.569960853461522522e+11
6.750000000000000224e-08 4.821816000000000000e+06 7.093337666912358398e+11 2.652249718737845459e+11 4.999136000000000000e+06 1.939875912557679749e+10 2.709762017750361023e+11
7.000000000000000477e-08 4.817845000000000000e+06 7.082406326809761963e+11 2.786685907873679810e+11 4.999095000000000000e+06 1.939938567521821594e+10 2.847631175451130371e+11
7.250000000000000731e-08 4.814154000000000000e+06 7.072272545568222656e+11 2.918494735792598877e+11 4.999056000000000000e+06 1.940010679830792236e+10 2.982698873898731079e+11
7.499999999999999661e-08 4.810592000000000000e+06 7.062546567984423828e+11 3.046835485269780273e+11 4.999015000000000000e+06 1.940088178657600403e+10 3.114103450024184570e+11
7.749999999999999914e-08 4.807178000000000000e+06 7.053469062557030029e+11 3.171166533845046387e+11 4.998977000000000000e+06 1.940177029764603424e+10 3.241277875028654175e+11
8.000000000000000167e-08 4.803885000000000000e+06 7.044840845822351074e+11 3.290619130580429077e+11 4.998932000000000000e+06 1.940275756124200821e+10 3.363338732360065308e+11
8.250000000000000421e-08 4.800679000000000000e+06 7.036634247466923828e+11 3.404664082503987427e+11 4.998889000000000000e+06 1.940386155368388367e+10 3.479748591178264771e+11
8.500000000000000674e-08 4.797624000000000000e+06 7.028959398869833984e+11 3.512595821620700684e+11 4.998865000000000000e+06 1.940514904440648651e+10 3.589781681005123901e+11
8.749999999999999604e-08 4.794646000000000000e+06 7.021684811424556885e+11 3.613697916740859985e+11 4.998810000000000000e+06 1.940642309603120422e+10 3.692717447818018799e+11
8.999999999999999857e-08 4.791887000000000000e+06 7.014977141901580811e+11 3.707486568153336182e+11 4.998767000000000000e+06 1.940784206281790161e+10 3.788077313935886841e+11
9.250000000000000111e-08 4.789216000000000000e+06 7.008684163228090820e+11 3.793467672899426270e+11 4.998713000000000000e+06 1.940920380514527893e+10 3.875376674135222778e+11
9.500000000000000364e-08 4.786666000000000000e+06 7.002929112309284668e+11 3.871258545625876465e+11 4.998675000000000000e+06 1.941083310775141144e+10 3.954248769989601440e+11
9.750000000000000618e-08 4.784159000000000000e+06 6.997566310247558594e+11 3.940428296318746948e+11 4.998631000000000000e+06 1.941252548457884598e+10 4.024272247796500854e+11
9.999999999999999547e-08 4.781741000000000000e+06 6.992541959200295410e+11 4.000748391963032227e+11 4.998586000000000000e+06 1.941430427075102234e+10 4.085237611446740112e+11
1.024999999999999980e-07 4.779430000000000000e+06 6.987866701113886719e+11 4.051940588650754395e+11 4.998535000000000000e+06 1.941614746613370132e+10 4.136893763951896973e+11
1.050000000000000005e-07 4.777214000000000000e+06 6.983538537822495117e+11 4.093964415674918213e+11 4.998494000000000000e+06 1.941813352581921005e+10 4.179229204956085205e+11
1.075000000000000031e-07 4.775051000000000000e+06 6.979328282956887207e+11 4.126698741519928589e+11 4.998454000000000000e+06 1.942023476425400162e+10 4.212148128934824829e+11
1.100000000000000056e-07 4.772968000000000000e+06 6.975346819682657471e+11 4.150196285193236694e+11 4.998410000000000000e+06 1.942238371474189758e+10 4.235736429568151245e+11
1.125000000000000081e-07 4.770960000000000000e+06 6.971567477758413086e+11 4.164580667072551270e+11 4.998360000000000000e+06 1.942456555249100113e+10 4.250144680236864624e+11
1.149999999999999974e-07 4.768981000000000000e+06 6.967963328386560059e+11 4.169990003003400879e+11 4.998313000000000000e+06 1.942686560027365875e+10 4.255532399261047974e+11
1.175000000000000000e-07 4.767072000000000000e+06 6.964364334323021240e+11 4.166706501765636597e+11 4.998262000000000000e+06 1.942923498849095917e+10 4.252211636214725952e+11
1.200000000000000157e-07 4.765153000000000000e+06 6.960701903322694092e+11 4.155051067784496460e+11 4.998218000000000000e+06 1.943177539760295868e+10 4.240530516173958130e+11
1.224999999999999918e-07 4.763335000000000000e+06 6.957194994034788818e+11 4.135329657693987427e+11 4.998178000000000000e+06 1.943441231451559830e+10 4.220815563907952271e+11
1.249999999999999943e-07 4.761450000000000000e+06 6.953566168756823730e+11 4.108121671006420898e+11 4.998130000000000000e+06 1.943705449050305176e+10 4.193660235691187134e+11
1.274999999999999969e-07 4.759666000000000000e+06 6.949937564961961670e+11 4.073899406165289917e+11 4.998083000000000000e+06 1.943981699086051178e+10 4.159550919862988892e+11
1.299999999999999994e-07 4.758003000000000000e+06 6.946509369536456299e+11 4.033301774429566040e+11 4.998034000000000000e+06 1.944268846362174988e+10 4.119149580972414551e+11
1.325000000000000019e-07 4.756307000000000000e+06 6.942880972743588867e+11 3.987091148678814697e+11 4.997985000000000000e+06 1.944557716298199463e+10 4.073237168206232910e+11
1.350000000000000045e-07 4.754611000000000000e+06 6.939157680356634521e+11 3.936050514602612305e+11 4.997936000000000000e+06 1.944855424702260208e+10 4.022605699217203369e+11
1.375000000000000070e-07 4.752984000000000000e+06 6.935356833521431885e+11 3.880805813070477295e+11 4.997881000000000000e+06 1.945158415054207611e+10 3.967880812928248901e+11
1.400000000000000095e-07 4.751381000000000000e+06 6.931540059951994629e+11 3.822268782469366455e+11 4.997834000000000000e+06 1.945474606657021713e+10 3.909981665601087036e+11
1.425000000000000121e-07 4.749749000000000000e+06 6.927497248857856445e+11 3.761211137260072021e+11 4.997780000000000000e+06 1.945798623530534363e+10 3.849684823347812500e+11
1.450000000000000146e-07 4.748124000000000000e+06 6.923373003750520020e+11 3.698481377363950195e+11 4.997723000000000000e+06 1.946134575722457123e+10 3.787831288594884033e+11
1.474999999999999907e-07 4.746551000000000000e+06 6.919172920501162109e+11 3.634859470465443726e+11 4.997662000000000000e+06 1.946478983707184601e+10 3.725197224172623901e+11
1.499999999999999932e-07 4.745007000000000000e+06 6.914916782423686523e+11 3.571208429939696045e+11 4.997605000000000000e+06 1.946828611149547958e+10 3.662645473315543213e+11
1.524999999999999957e-07 4.743445000000000000e+06 6.910614080988188477e+11 3.508510168226997070e+11 4.997556000000000000e+06 1.947194692149773026e+10 3.601157275198615112e+11
1.549999999999999983e-07 4.741886000000000000e+06 6.906131847679133301e+11 3.447568074326499634e+11 4.997510000000000000e+06 1.947580259254745483e+10 3.541533470455800171e+11
1.575000000000000008e-07 4.740365000000000000e+06 6.901663357961706543e+11 3.389212923115817871e+11 4.997445000000000000e+06 1.947964029322515106e+10 3.484591237408267212e+11
1.600000000000000033e-07 4.738797000000000000e+06 6.896930009241101074e+11 3.334194789272362671e+11 4.997389000000000000e+06 1.948366670787159729e+10 3.431074899463564453e+11
1.625000000000000059e-07 4.737259000000000000e+06 6.892253834636464844e+11 3.283308671754099121e+11 4.997330000000000000e+06 1.948780131034841919e+10 3.381772803361908569e+11
1.650000000000000084e-07 4.735696000000000000e+06 6.887465203033227539e+11 3.237214340082780762e+11 4.997266000000000000e+06 1.949201729431859589e+10 3.337339155902758179e+11
1.675000000000000109e-07 4.734095000000000000e+06 6.882499958906557617e+11 3.196607385758070068e+11 4.997194000000000000e+06 1.949635810064724731e+10 3.298467999586452026e+11
1.700000000000000135e-07 4.732513000000000000e+06 6.877370987680566406e+11 3.162071153274341431e+11 4.997102000000000000e+06 1.950067295436833954e+10 3.265735435809114990e+11
1.725000000000000160e-07 4.730914000000000000e+06 6.872177241422937012e+11 3.134123828372624512e+11 4.997045000000000000e+06 1.950534704658226013e+10 3.239654204800914917e+11
1.749999999999999921e-07 4.729302000000000000e+06 6.866904587984310303e+11 3.113211583063190918e+11 4.996980000000000000e+06 1.951016130567552185e+10 3.220657701481732788e+11
1.774999999999999946e-07 4.727767000000000000e+06 6.861776920569814453e+11 3.099744149838256836e+11 4.996913000000000000e+06 1.951517333449585342e+10 3.209158919882882690e+11
1.799999999999999971e-07 4.726223000000000000e+06 6.856612713095517578e+11 3.094143528814684448e+11 4.996848000000000000e+06 1.952027439926902008e+10 3.205589740218364868e+11
1.824999999999999997e-07 4.724648000000000000e+06 6.851235795381794434e+11 3.096686948208001709e+11 4.996774000000000000e+06 1.952548703389393616e+10 3.210227866408499756e+11
1.850000000000000022e-07 4.723149000000000000e+06 6.846053935355236816e+11 3.107514227265471191e+11 4.996688000000000000e+06 1.953074782038488770e+10 3.223207640765319824e+11
1.875000000000000048e-07 4.721533000000000000e+06 6.840461634659875488e+11 3.126812940378679199e+11 4.996604000000000000e+06 1.953624795513064575e+10 3.244718285486039429e+11
1.900000000000000073e-07 4.719967000000000000e+06 6.835050252354822998e+11 3.154471679198744507e+11 4.996542000000000000e+06 1.954213058862218094e+10 3.274645653155756226e+11
1.925000000000000098e-07 4.718329000000000000e+06 6.829305501272961426e+11 3.190368995282299805e+11 4.996471000000000000e+06 1.954813769084520340e+10 3.312859114167394409e+11
1.950000000000000124e-07 4.716709000000000000e+06 6.823496773729028320e+11 3.234405558416265259e+11 4.996388000000000000e+06 1.955429031496254349e+10 3.359259603257998047e+11
1.975000000000000149e-07 4.715157000000000000e+06 6.817973519055236816e+11 3.286276082703432007e+11 4.996309000000000000e+06 1.956061070341372681e+10 3.413542099942747803e+11
1.999999999999999909e-07 4.713511000000000000e+06 6.812075246068017578e+11 3.345763159467744751e+11 4.996215000000000000e+06 1.956702301072848511e+10 3.475488145436400757e+11
2.024999999999999935e-07 4.711944000000000000e+06 6.806401606798768311e+11 3.412483082333343506e+11 4.996134000000000000e+06 1.957384350736898041e+10 3.544703944179074097e+11
2.049999999999999960e-07 4.710413000000000000e+06 6.800722192104570312e+11 3.485921796225414429e+11 4.996050000000000000e+06 1.958078403690397644e+10 3.620666824821948242e+11
2.074999999999999986e-07 4.708903000000000000e+06 6.795104769780764160e+11 3.565643115989686890e+11 4.995977000000000000e+06 1.958806815356039047e+10 3.702938491408537598e+11
2.100000000000000011e-07 4.707407000000000000e+06 6.789430008353549805e+11 3.651130427819511108e+11 4.995885000000000000e+06 1.959536699026068115e+10 3.791007646023610229e+11
2.125000000000000036e-07 4.705794000000000000e+06 6.783608359424262695e+11 3.741786124173586426e+11 4.995804000000000000e+06 1.960293174272236633e+10 3.884263515369403076e+11
2.150000000000000062e-07 4.704221000000000000e+06 6.777830258840548096e+11 3.836809584744227905e+11 4.995722000000000000e+06 1.961067034825621414e+10 3.981871068265762939e+11
2.175000000000000087e-07 4.702710000000000000e+06 6.772178756559339600e+11 3.935435071839658813e+11 4.995622000000000000e+06 1.961855762748178864e+10 4.083049626917613525e+11
2.200000000000000112e-07 4.701144000000000000e+06 6.766501877804454346e+11 4.036896475723244019e+11 4.995545000000000000e+06 1.962691615567558670e+10 4.187029421549263306e+11
2.225000000000000138e-07 4.699680000000000000e+06 6.761109651621547852e+11 4.140512409192161865e+11 4.995456000000000000e+06 1.963530427744701385e+10 4.293117685100034180e+11
2.250000000000000163e-07 4.698238000000000000e+06 6.755830117678332520e+11 4.245526467437315674e+11 4.995358000000000000e+06 1.964392449128311157e+10 4.400545697728192139e+11
2.274999999999999924e-07 4.696829000000000000e+06 6.750673041125644531e+11 4.351115567117134399e+11 4.995270000000000000e+06 1.965276103140665817e+10 4.508477730602413330e+11
2.299999999999999949e-07 4.695463000000000000e+06 6.745678403244294434e+11 4.456516812982114258e+11 4.995187000000000000e+06 1.966201751564685059e+10 4.616143573039296875e+11
2.324999999999999974e-07 4.694071000000000000e+06 6.740739143234345703e+11 4.560889443938406372e+11 4.995098000000000000e+06 1.967141197006039047e+10 4.722688101590194092e+11
2.350000000000000000e-07 4.692713000000000000e+06 6.736018430646599121e+11 4.663425211096539917e+11 4.994981000000000000e+06 1.968068349082683945e+10 4.827284431962709961e+11
2.375000000000000025e-07 4.691392000000000000e+06 6.731527354346014404e+11 4.763337573284395752e+11 4.994882000000000000e+06 1.969037821619106293e+10 4.929133339040778809e+11
2.400000000000000315e-07 4.690022000000000000e+06 6.727068399407741699e+11 4.859880338207710571e+11 4.994784000000000000e+06 1.970022680673579025e+10 5.027480982677955322e+11
2.425000000000000076e-07 4.688772000000000000e+06 6.723013569296384277e+11 4.952266636484431152e+11 4.994686000000000000e+06 1.971044449201085663e+10 5.121532724933262939e+11
2.449999999999999836e-07 4.687533000000000000e+06 6.719051539967781982e+11 5.039880152964707642e+11 4.994583000000000000e+06 1.972085857728155899e+10 5.210671188846660767e+11
2.475000000000000126e-07 4.686302000000000000e+06 6.715287991798587646e+11 5.122092511974025269e+11 4.994497000000000000e+06 1.973157962116464233e+10 5.294267619254750977e+11
2.499999999999999887e-07 4.685136000000000000e+06 6.711807943663530273e+11 5.198270027685156250e+11 4.994401000000000000e+06 1.974233664672243500e+10 5.371686862539797974e+11
2.525000000000000177e-07 4.683930000000000000e+06 6.708383401353031006e+11 5.267940915038654785e+11 4.994314000000000000e+06 1.975339791113005066e+10 5.442463427361461182e+11
2.549999999999999938e-07 4.682863000000000000e+06 6.705267196419697266e+11 5.330663063941314087e+11 4.994204000000000000e+06 1.976457464095939636e+10 5.506159538679158936e+11
2.575000000000000228e-07 4.681784000000000000e+06 6.702326571153984375e+11 5.385986576982464600e+11 4.994111000000000000e+06 1.977605116221769333e+10 5.562334688029024658e+11
2.599999999999999988e-07 4.680710000000000000e+06 6.699394690894470215e+11 5.433649247195394897e+11 4.994009000000000000e+06 1.978767279798247528e+10 5.610739062048375244e+11
2.625000000000000278e-07 4.679642000000000000e+06 6.696651029482847900e+11 5.473353349669120483e+11 4.993908000000000000e+06 1.979949820927931976e+10 5.651072195066864014e+11
2.650000000000000039e-07 4.678617000000000000e+06 6.694121235368166504e+11 5.504816052258292236e+11 4.993816000000000000e+06 1.981155378214940643e+10 5.683062176281243896e+11
2.674999999999999800e-07 4.677574000000000000e+06 6.691637670799682617e+11 5.527990863557310791e+11 4.993707000000000000e+06 1.982363426130320358e+10 5.706680361725755615e+11
2.700000000000000090e-07 4.676570000000000000e+06 6.689316670877856445e+11 5.542800757884005127e+11 4.993586000000000000e+06 1.983593133766681671e+10 5.721858617867946777e+11
2.724999999999999850e-07 4.675638000000000000e+06 6.687080658492226562e+11 5.549255717998524170e+11 4.993482000000000000e+06 1.984849683736845398e+10 5.728619572023041992e+11
2.750000000000000140e-07 4.674663000000000000e+06 6.684906290480407715e+11 5.547534279021181641e+11 4.993386000000000000e+06 1.986137169459025192e+10 5.727155742374367676e+11
2.774999999999999901e-07 4.673782000000000000e+06 6.682882764368984375e+11 5.537886760374937744e+11 4.993239000000000000e+06 1.987385136991201019e+10 5.717732694242205811e+11
2.800000000000000191e-07 4.672804000000000000e+06 6.680771102982014160e+11 5.520506512605742188e+11 4.993124000000000000e+06 1.988682833339772797e+10 5.700559003605578613e+11
