# time_tab [s], number_e [$\#$], Ek_e [eV], qV_e [eV], number_i [$\#$], Ek_i [eV], qV_i [eV]
0.000000000000000000e+00 4.999992000000000000e+06 7.499904638109949951e+11 1.056653008674484634e+10 4.999992000000000000e+06 1.939253822557877731e+10 1.105437278734274292e+10
2.500000000000000052e-09 4.998392000000000000e+06 7.473460901661503906e+11 1.059092083195750809e+10 5.006809000000000000e+06 1.941875148961920166e+10 1.106860270582651138e+10
5.000000000000000105e-09 4.997191000000000000e+06 7.447761797367303467e+11 1.087157910561220360e+10 5.013610000000000000e+06 1.944514925741269302e+10 1.133871542222174263e+10
7.500000000000000984e-09 4.995631000000000000e+06 7.421940649301979980e+11 1.229618338281645012e+10 5.020279000000000000e+06 1.947120210734088898e+10 1.274986438882507706e+10
1.000000000000000021e-08 4.993870000000000000e+06 7.395847460182907715e+11 1.488040493556381798e+10 5.026918000000000000e+06 1.949665698925049210e+10 1.532393268816250420e+10
1.249999999999999943e-08 4.992135000000000000e+06 7.370402754097174072e+11 1.852292003806938171e+10 5.033362000000000000e+06 1.952127822277239990e+10 1.896519831103335953e+10
1.500000000000000197e-08 4.990529000000000000e+06 7.344815044885578613e+11 2.319355692823517609e+10 5.039884000000000000e+06 1.954622286982065582e+10 2.364785819046364594e+10
1.750000000000000119e-08 4.988886000000000000e+06 7.319653435047207031e+11 2.887941158479236603e+10 5.046278000000000000e+06 1.957101473701720810e+10 2.936211737217796707e+10
2.000000000000000042e-08 4.987512000000000000e+06 7.294689120681833496e+11 3.553907744787825775e+10 5.052685000000000000e+06 1.959563501179278183e+10 3.606929028662338257e+10
2.249999999999999964e-08 4.986197000000000000e+06 7.269733166733786621e+11 4.314367261840412140e+10 5.059026000000000000e+06 1.962007778308231354e+10 4.374331588745385742e+10
2.499999999999999887e-08 4.984818000000000000e+06 7.245232674908935547e+11 5.167100017700695038e+10 5.065203000000000000e+06 1.964400025929973221e+10 5.236461109191207886e+10
2.750000000000000140e-08 4.983618000000000000e+06 7.221104933413632812e+11 6.102795269154261017e+10 5.071338000000000000e+06 1.966796134262249756e+10 6.184188451284992218e+10
3.000000000000000394e-08 4.982698000000000000e+06 7.197331320058419189e+11 7.119497776131947327e+10 5.077486000000000000e+06 1.969202219449809265e+10 7.215755648526194763e+10
3.249999999999999985e-08 4.981901000000000000e+06 7.173295635670129395e+11 8.215358361715251160e+10 5.083667000000000000e+06 1.971590223040648651e+10 8.329308046164826965e+10
3.500000000000000239e-08 4.981344000000000000e+06 7.149527140682531738e+11 9.384147139374737549e+10 5.089812000000000000e+06 1.974011396635873795e+10 9.518552579784783936e+10
3.749999999999999830e-08 4.980966000000000000e+06 7.126050117777376709e+11 1.062043094938376465e+11 5.095931000000000000e+06 1.976351521502933502e+10 1.077799483142942657e+11
4.000000000000000084e-08 4.980632000000000000e+06 7.102775095172044678e+11 1.191759499446911469e+11 5.101912000000000000e+06 1.978730099150199890e+10 1.210090665058785095e+11
4.250000000000000337e-08 4.980523000000000000e+06 7.079760621602229004e+11 1.326568504866951141e+11 5.107880000000000000e+06 1.981036137908803558e+10 1.347713326741109161e+11
4.499999999999999929e-08 4.980649000000000000e+06 7.057140463118957520e+11 1.465954599413986206e+11 5.113843000000000000e+06 1.983320440409423828e+10 1.490127180117010193e+11
4.750000000000000182e-08 4.981073000000000000e+06 7.035107924458521729e+11 1.609338979984830627e+11 5.119795000000000000e+06 1.985668623296226120e+10 1.636724695672044983e+11
4.999999999999999774e-08 4.981250000000000000e+06 7.013605861102255859e+11 1.755865003615421448e+11 5.125420000000000000e+06 1.987873927231333923e+10 1.786618716474880066e+11
5.250000000000000027e-08 4.981662000000000000e+06 6.992370696867735596e+11 1.904716679871413879e+11 5.131098000000000000e+06 1.990099451265863037e+10 1.938952395033609619e+11
5.500000000000000281e-08 4.982521000000000000e+06 6.971607339639851074e+11 2.054810911358269958e+11 5.136833000000000000e+06 1.992331316570633316e+10 2.092599206099581604e+11
5.749999999999999872e-08 4.983401000000000000e+06 6.950720241816799316e+11 2.205645336006715088e+11 5.142560000000000000e+06 1.994573641253479767e+10 2.247015185792378235e+11
6.000000000000000787e-08 4.984490000000000000e+06 6.930919409307817383e+11 2.356075723965003662e+11 5.148148000000000000e+06 1.996774092345161438e+10 2.401015118759686279e+11
6.249999999999999717e-08 4.985905000000000000e+06 6.911404515741010742e+11 2.505239724925075073e+11 5.153843000000000000e+06 1.999032831567411804e+10 2.553699143318163147e+11
6.499999999999999971e-08 4.987112000000000000e+06 6.892373551881195068e+11 2.652321474147128296e+11 5.159277000000000000e+06 2.001173381534824371e+10 2.704210760681832275e+11
6.750000000000000224e-08 4.988718000000000000e+06 6.873999208123027344e+11 2.796510286177231445e+11 5.164787000000000000e+06 2.003381720038140869e+10 2.851700008598153687e+11
7.000000000000000477e-08 4.990515000000000000e+06 6.856389109706854248e+11 2.936912007315926514e+11 5.170297000000000000e+06 2.005548570316329956e+10 2.995243498723018188e+11
7.250000000000000731e-08 4.992301000000000000e+06 6.839225255266638184e+11 3.072818394295812378e+11 5.175661000000000000e+06 2.007703811512971878e+10 3.134106432427864380e+11
7.499999999999999661e-08 4.994285000000000000e+06 6.822715980098640137e+11 3.203254458419789429e+11 5.181031000000000000e+06 2.009902790867412949e+10 3.267286066672489014e+11
7.749999999999999914e-08 4.996443000000000000e+06 6.806646194418675537e+11 3.327532652677525024e+11 5.186455000000000000e+06 2.012114584209844971e+10 3.394065061113139648e+11
8.000000000000000167e-08 4.998625000000000000e+06 6.791301116994025879e+11 3.444559299988867188e+11 5.191719000000000000e+06 2.014232211233024597e+10 3.513336656510574951e+11
8.250000000000000421e-08 5.001016000000000000e+06 6.776373708957648926e+11 3.554133297255017700e+11 5.197045000000000000e+06 2.016410139870597076e+10 3.624895432335231934e+11
8.500000000000000674e-08 5.003446000000000000e+06 6.761832979040230713e+11 3.655438372412284546e+11 5.202350000000000000e+06 2.018584884171656036e+10 3.727918525257386475e+11
8.749999999999999604e-08 5.005863000000000000e+06 6.747803923099155273e+11 3.747626487466992798e+11 5.207531000000000000e+06 2.020719641285727692e+10 3.821548338996265869e+11
8.999999999999999857e-08 5.008493000000000000e+06 6.734611571118875732e+11 3.830098190306567383e+11 5.212729000000000000e+06 2.022906244020782852e+10 3.905190376785858765e+11
9.250000000000000111e-08 5.011128000000000000e+06 6.721941195859357910e+11 3.902562851086162720e+11 5.217881000000000000e+06 2.025083796139958191e+10 3.978576071906248779e+11
9.500000000000000364e-08 5.013996000000000000e+06 6.709783574096191406e+11 3.964803073898850708e+11 5.223017000000000000e+06 2.027265386919250488e+10 4.041514046365599365e+11
9.750000000000000618e-08 5.016719000000000000e+06 6.698047514698621826e+11 4.016562854459059448e+11 5.228028000000000000e+06 2.029377151646354675e+10 4.093767373689803467e+11
9.999999999999999547e-08 5.019526000000000000e+06 6.686249172876425781e+11 4.057546218803614502e+11 5.233091000000000000e+06 2.031525898361332321e+10 4.135061437846074829e+11
1.024999999999999980e-07 5.022467000000000000e+06 6.675169311972906494e+11 4.087627573175713501e+11 5.238068000000000000e+06 2.033638816319791412e+10 4.165297276175540161e+11
1.050000000000000005e-07 5.025516000000000000e+06 6.664006142691968994e+11 4.107156247035316162e+11 5.243199000000000000e+06 2.035814090579038239e+10 4.184850835384417114e+11
1.075000000000000031e-07 5.028561000000000000e+06 6.653625710260881348e+11 4.115682552130886230e+11 5.248143000000000000e+06 2.037929730262965775e+10 4.193305387242896729e+11
1.100000000000000056e-07 5.031717000000000000e+06 6.643137956874748535e+11 4.113844672304011230e+11 5.253154000000000000e+06 2.040132143075043869e+10 4.191331768375651245e+11
1.125000000000000081e-07 5.034853000000000000e+06 6.632705962529998779e+11 4.101851345640693359e+11 5.258091000000000000e+06 2.042270705700167847e+10 4.179160359164594727e+11
1.149999999999999974e-07 5.037961000000000000e+06 6.622555090718286133e+11 4.079881559988563232e+11 5.262963000000000000e+06 2.044362869865930557e+10 4.156997036675137329e+11
1.175000000000000000e-07 5.041029000000000000e+06 6.612511947840847168e+11 4.048611614902642822e+11 5.267816000000000000e+06 2.046499280964613342e+10 4.125535867397528076e+11
1.200000000000000157e-07 5.044011000000000000e+06 6.602785141796939697e+11 4.008600703047776489e+11 5.272509000000000000e+06 2.048559374764818573e+10 4.085348877620313110e+11
1.224999999999999918e-07 5.047030000000000000e+06 6.593297711326204834e+11 3.960578556762132568e+11 5.277127000000000000e+06 2.050627062235205841e+10 4.037190068982635498e+11
1.249999999999999943e-07 5.050110000000000000e+06 6.583565569426544189e+11 3.905343778332250366e+11 5.281817000000000000e+06 2.052729926847022247e+10 3.981893800510912476e+11
1.274999999999999969e-07 5.053207000000000000e+06 6.573888401230583496e+11 3.843697578182575073e+11 5.286460000000000000e+06 2.054823660341944885e+10 3.920280380159234009e+11
1.299999999999999994e-07 5.056249000000000000e+06 6.564279820516657715e+11 3.776663876626030273e+11 5.291028000000000000e+06 2.056881945217338181e+10 3.853378383562079468e+11
1.325000000000000019e-07 5.059338000000000000e+06 6.554562281050704346e+11 3.705253104770693359e+11 5.295638000000000000e+06 2.058966878839078522e+10 3.782202985974472656e+11
1.350000000000000045e-07 5.062588000000000000e+06 6.544557744732513428e+11 3.630387597837376709e+11 5.300383000000000000e+06 2.061128075218798447e+10 3.707675855210940552e+11
1.375000000000000070e-07 5.065732000000000000e+06 6.534706417256319580e+11 3.552906273860383911e+11 5.304992000000000000e+06 2.063214279781698608e+10 3.630637568383333130e+11
1.400000000000000095e-07 5.068969000000000000e+06 6.524727076951918945e+11 3.473879628688412476e+11 5.309623000000000000e+06 2.065322790135056305e+10 3.552163855047792358e+11
1.425000000000000121e-07 5.072032000000000000e+06 6.514982685919185791e+11 3.394279410708471069e+11 5.314068000000000000e+06 2.067381980561585999e+10 3.473232325526334839e+11
1.450000000000000146e-07 5.075151000000000000e+06 6.504856075921153564e+11 3.315481191799629517e+11 5.318585000000000000e+06 2.069486559456754684e+10 3.395220220482335205e+11
1.474999999999999907e-07 5.078176000000000000e+06 6.494903998075485840e+11 3.238254211423795166e+11 5.322979000000000000e+06 2.071504744641461182e+10 3.318891606147659302e+11
1.499999999999999932e-07 5.081231000000000000e+06 6.484669863810563965e+11 3.163734125826496582e+11 5.327434000000000000e+06 2.073616388820975494e+10 3.245375083145416260e+11
1.524999999999999957e-07 5.084340000000000000e+06 6.474518987929494629e+11 3.092783784277068481e+11 5.331879000000000000e+06 2.075685495288067627e+10 3.175526700791276245e+11
1.549999999999999983e-07 5.087429000000000000e+06 6.464075805134598389e+11 3.026575594591794434e+11 5.336350000000000000e+06 2.077797674201538086e+10 3.110515843453647461e+11
1.575000000000000008e-07 5.090410000000000000e+06 6.453550721865654297e+11 2.966006992363898926e+11 5.340775000000000000e+06 2.079869637460730362e+10 3.051234911741386719e+11
1.600000000000000033e-07 5.093431000000000000e+06 6.442987366535197754e+11 2.911872871757516479e+11 5.345197000000000000e+06 2.081949698262472534e+10 2.998462847314750977e+11
1.625000000000000059e-07 5.096402000000000000e+06 6.432609852088076172e+11 2.864938255169580688e+11 5.349553000000000000e+06 2.084040306599730682e+10 2.952959138520409546e+11
1.650000000000000084e-07 5.099480000000000000e+06 6.421899928749677734e+11 2.825812580516882324e+11 5.354009000000000000e+06 2.086181773361599350e+10 2.915330310528381958e+11
1.675000000000000109e-07 5.102327000000000000e+06 6.411469467391037598e+11 2.794949366383611450e+11 5.358238000000000000e+06 2.088270173940904236e+10 2.886027013246594849e+11
1.700000000000000135e-07 5.105214000000000000e+06 6.400812451543552246e+11 2.773059317289936523e+11 5.362535000000000000e+06 2.090336869109151077e+10 2.865749999521588135e+11
1.725000000000000160e-07 5.108157000000000000e+06 6.390104027218424072e+11 2.760568557905610352e+11 5.366866000000000000e+06 2.092474188031630325e+10 2.854928045980575562e+11
1.749999999999999921e-07 5.110963000000000000e+06 6.379713569054301758e+11 2.757684772526008911e+11 5.371026000000000000e+06 2.094562347243460846e+10 2.853771583534953003e+11
1.774999999999999946e-07 5.113678000000000000e+06 6.369162070378267822e+11 2.764814650526163940e+11 5.375128000000000000e+06 2.096651200903422928e+10 2.862681282362768555e+11
1.799999999999999971e-07 5.116539000000000000e+06 6.358534188584985352e+11 2.782142972495773926e+11 5.379345000000000000e+06 2.098796213688511658e+10 2.881829041107700806e+11
1.824999999999999997e-07 5.119233000000000000e+06 6.348008706181497803e+11 2.809324469524555664e+11 5.383418000000000000e+06 2.100880261941834259e+10 2.910869036647288208e+11
1.850000000000000022e-07 5.121951000000000000e+06 6.337538566687075195e+11 2.846515942438912354e+11 5.387472000000000000e+06 2.102980567974546051e+10 2.949960491148858032e+11
1.875000000000000048e-07 5.124668000000000000e+06 6.326869026773948975e+11 2.893786950465445557e+11 5.391583000000000000e+06 2.105121935359406281e+10 2.999165076582645874e+11
1.900000000000000073e-07 5.127290000000000000e+06 6.316518091514278564e+11 2.950547081903749390e+11 5.395538000000000000e+06 2.107196967816117096e+10 3.057883143006361694e+11
1.925000000000000098e-07 5.130055000000000000e+06 6.305923128503542480e+11 3.016653583115149536e+11 5.399673000000000000e+06 2.109366640363481140e+10 3.125969470757282104e+11
1.950000000000000124e-07 5.132635000000000000e+06 6.295639021573662109e+11 3.091513857772470703e+11 5.403574000000000000e+06 2.111460280944012833e+10 3.202826647437900391e+11
1.975000000000000149e-07 5.135321000000000000e+06 6.285071060052479248e+11 3.174776193112785034e+11 5.407596000000000000e+06 2.113645037760726166e+10 3.288098613735892334e+11
1.999999999999999909e-07 5.137905000000000000e+06 6.274691809327214355e+11 3.265453948213965454e+11 5.411507000000000000e+06 2.115799276835009003e+10 3.380794636906747437e+11
2.024999999999999935e-07 5.140581000000000000e+06 6.264433979423408203e+11 3.362951578415561523e+11 5.415453000000000000e+06 2.117981203967580414e+10 3.480319142194456177e+11
2.049999999999999960e-07 5.143144000000000000e+06 6.254245377852351074e+11 3.466595451352523193e+11 5.419277000000000000e+06 2.120127275399848175e+10 3.586000018491482544e+11
2.074999999999999986e-07 5.145720000000000000e+06 6.244102880993697510e+11 3.575537911473171997e+11 5.423138000000000000e+06 2.122319967430785370e+10 3.696979071022243042e+11
2.100000000000000011e-07 5.148145000000000000e+06 6.234085577707189941e+11 3.688787557987076416e+11 5.426893000000000000e+06 2.124475732353920364e+10 3.812244977602225342e+11
2.125000000000000036e-07 5.150746000000000000e+06 6.224021945762534180e+11 3.805444782098170166e+11 5.430743000000000000e+06 2.126618241882114410e+10 3.930883021261051025e+11
2.150000000000000062e-07 5.153290000000000000e+06 6.214223572201080322e+11 3.924216942136674194e+11 5.434491000000000000e+06 2.128781527553789520e+10 4.051594476739700928e+11
2.175000000000000087e-07 5.155905000000000000e+06 6.204496898986075439e+11 4.044210693611685181e+11 5.438290000000000000e+06 2.130996221271639252e+10 4.173485821938317261e+11
2.200000000000000112e-07 5.158375000000000000e+06 6.194950649856198730e+11 4.164373989119205322e+11 5.441937000000000000e+06 2.133169758373484802e+10 4.295494765993963623e+11
2.225000000000000138e-07 5.160978000000000000e+06 6.185411562149714355e+11 4.283767169002386475e+11 5.445706000000000000e+06 2.135419154839012146e+10 4.416667000402925415e+11
2.250000000000000163e-07 5.163482000000000000e+06 6.175993454940854492e+11 4.401038619163195801e+11 5.449396000000000000e+06 2.137618460276343536e+10 4.535636146124277344e+11
2.274999999999999924e-07 5.166072000000000000e+06 6.166726031180435791e+11 4.515467685788428345e+11 5.453113000000000000e+06 2.139856723130160904e+10 4.651664809830593872e+11
2.299999999999999949e-07 5.168397000000000000e+06 6.157747609134289551e+11 4.625691971785064697e+11 5.456602000000000000e+06 2.142056806737765503e+10 4.763376108721640625e+11
2.324999999999999974e-07 5.170877000000000000e+06 6.148824755658081055e+11 4.731149935578196411e+11 5.460236000000000000e+06 2.144338166694918060e+10 4.870197460144075317e+11
2.350000000000000000e-07 5.173396000000000000e+06 6.140451056326414795e+11 4.830730927619135132e+11 5.463773000000000000e+06 2.146599401422288513e+10 4.971015622102662964e+11
2.375000000000000025e-07 5.176032000000000000e+06 6.132138681074866943e+11 4.923553849066485596e+11 5.467391000000000000e+06 2.148908441627720261e+10 5.064960557794806519e+11
2.400000000000000315e-07 5.178615000000000000e+06 6.124039688100339355e+11 5.009078205836582031e+11 5.470951000000000000e+06 2.151179305112693787e+10 5.151494053902272949e+11
2.425000000000000076e-07 5.181212000000000000e+06 6.116081335914057617e+11 5.086575488206383057e+11 5.474481000000000000e+06 2.153465370533997345e+10 5.229881390651812744e+11
2.449999999999999836e-07 5.183798000000000000e+06 6.108269606342236328e+11 5.155537099633712158e+11 5.478011000000000000e+06 2.155765879010290527e+10 5.299611857838670654e+11
2.475000000000000126e-07 5.186375000000000000e+06 6.100634751439296875e+11 5.215171277028566895e+11 5.481473000000000000e+06 2.158078674814771271e+10 5.359892586111584473e+11
2.499999999999999887e-07 5.188975000000000000e+06 6.093299491871108398e+11 5.264984507241469116e+11 5.484911000000000000e+06 2.160364970790272141e+10 5.410233058625377808e+11
2.525000000000000177e-07 5.191553000000000000e+06 6.086229155051818848e+11 5.304755482491226196e+11 5.488295000000000000e+06 2.162665455172459412e+10 5.450421987823011475e+11
2.549999999999999938e-07 5.194182000000000000e+06 6.079208737061000977e+11 5.334462257349783325e+11 5.491736000000000000e+06 2.164995088513798523e+10 5.480444293005094604e+11
2.575000000000000228e-07 5.196839000000000000e+06 6.072369045361699219e+11 5.353998910682653809e+11 5.495136000000000000e+06 2.167369822671512222e+10 5.500203881582652588e+11
2.599999999999999988e-07 5.199379000000000000e+06 6.065815825765192871e+11 5.362942974080798950e+11 5.498446000000000000e+06 2.169725454335129547e+10 5.509288522689327393e+11
2.625000000000000278e-07 5.202010000000000000e+06 6.059303112824918213e+11 5.361622313580704956e+11 5.501779000000000000e+06 2.172088548598231506e+10 5.508043612299543457e+11
2.650000000000000039e-07 5.204725000000000000e+06 6.052761903741525879e+11 5.350389505804869995e+11 5.505169000000000000e+06 2.174483552898653793e+10 5.496834844104844971e+11
2.674999999999999800e-07 5.207397000000000000e+06 6.046306185296032715e+11 5.329237805023161621e+11 5.508536000000000000e+06 2.176860503111055374e+10 5.475659288905879517e+11
2.700000000000000090e-07 5.209987000000000000e+06 6.040115114121271973e+11 5.298577853383386230e+11 5.511784000000000000e+06 2.179207190091387939e+10 5.444938374212735596e+11
2.724999999999999850e-07 5.212666000000000000e+06 6.033802180656507568e+11 5.259031216539719849e+11 5.515129000000000000e+06 2.181638414900406647e+10 5.405310999683473511e+11
2.750000000000000140e-07 5.215326000000000000e+06 6.027786809328660889e+11 5.211069045881537476e+11 5.518368000000000000e+06 2.184053572641547394e+10 5.357266002761782837e+11
2.774999999999999901e-07 5.217870000000000000e+06 6.021664090765946045e+11 5.155465048032590942e+11 5.521561000000000000e+06 2.186420809517396164e+10 5.301588469209907837e+11
2.800000000000000191e-07 5.220481000000000000e+06 6.015611828896779785e+11 5.092967970438511353e+11 5.524758000000000000e+06 2.188803401152144623e+10 5.239032839925385742e+11
