# time_tab [s], number_e [$\#$], Ek_e [eV], qV_e [eV], number_i [$\#$], Ek_i [eV], qV_i [eV]
0.000000000000000000e+00 4.999998000000000000e+06 7.497424251893659668e+11 7.823947095578760147e+09 4.999998000000000000e+06 1.939191258640262604e+10 8.344963158975924492e+09
2.500000000000000052e-09 4.991751000000000000e+06 7.480781673558916016e+11 7.830191620820492744e+09 4.999965000000000000e+06 1.939172588648649597e+10 8.344971348175135612e+09
5.000000000000000105e-09 4.983460000000000000e+06 7.463964446659106445e+11 8.154914551985790253e+09 4.999929000000000000e+06 1.939155102059156418e+10 8.670808988901952744e+09
7.500000000000000984e-09 4.975092000000000000e+06 7.447032225949013672e+11 9.731402063482397079e+09 4.999900000000000000e+06 1.939140617369496155e+10 1.025201917985294914e+10
1.000000000000000021e-08 4.966582000000000000e+06 7.430128638815534668e+11 1.251943185938183212e+10 4.999863000000000000e+06 1.939121736576925278e+10 1.305239437167424011e+10
1.249999999999999943e-08 4.958326000000000000e+06 7.413348165459782715e+11 1.649900145257478523e+10 4.999823000000000000e+06 1.939102784669250488e+10 1.705610042818656731e+10
1.500000000000000197e-08 4.950054000000000000e+06 7.396740628797598877e+11 2.168044544159478378e+10 4.999789000000000000e+06 1.939082446871485138e+10 2.227708969844667053e+10
1.750000000000000119e-08 4.941730000000000000e+06 7.379930799724838867e+11 2.804567291923167038e+10 4.999746000000000000e+06 1.939056381986185455e+10 2.870062095545422745e+10
2.000000000000000042e-08 4.933396000000000000e+06 7.363266186218586426e+11 3.558951171266649628e+10 4.999721000000000000e+06 1.939041553641800690e+10 3.632461130340358734e+10
2.249999999999999964e-08 4.925018000000000000e+06 7.346691435436564941e+11 4.428940531524594116e+10 4.999699000000000000e+06 1.939030325051321793e+10 4.512907809106052399e+10
2.499999999999999887e-08 4.916635000000000000e+06 7.330112144291275635e+11 5.413597699046688080e+10 4.999667000000000000e+06 1.939016806330284119e+10 5.510784951343948364e+10
2.750000000000000140e-08 4.908385000000000000e+06 7.313441452399069824e+11 6.510868602820211029e+10 4.999624000000000000e+06 1.938995307071427155e+10 6.624405989891521454e+10
3.000000000000000394e-08 4.900170000000000000e+06 7.297102492103979492e+11 7.720245809555807495e+10 4.999597000000000000e+06 1.938982344338768005e+10 7.853617936475381470e+10
3.249999999999999985e-08 4.891988000000000000e+06 7.280803708342360840e+11 9.041830980454957581e+10 4.999561000000000000e+06 1.938964994532679749e+10 9.198841494181901550e+10
3.500000000000000239e-08 4.883671000000000000e+06 7.264301376146279297e+11 1.047567394893685760e+11 4.999524000000000000e+06 1.938947112965659332e+10 1.066048424735872040e+11
3.749999999999999830e-08 4.875403000000000000e+06 7.247398305968507080e+11 1.201972350602050781e+11 4.999484000000000000e+06 1.938925631919359589e+10 1.223680976919371185e+11
4.000000000000000084e-08 4.867135000000000000e+06 7.230914512947330322e+11 1.367165501365264587e+11 4.999453000000000000e+06 1.938911823020721436e+10 1.392575957614479980e+11
4.250000000000000337e-08 4.858975000000000000e+06 7.214663237713470459e+11 1.542987683860343628e+11 4.999419000000000000e+06 1.938895243287078857e+10 1.572607898371976929e+11
4.499999999999999929e-08 4.850708000000000000e+06 7.198464375534511719e+11 1.729661790846466980e+11 4.999387000000000000e+06 1.938873813697977448e+10 1.764038083899874573e+11
4.750000000000000182e-08 4.842381000000000000e+06 7.181864452879256592e+11 1.926883124366342468e+11 4.999364000000000000e+06 1.938864567012593079e+10 1.966589990205508118e+11
4.999999999999999774e-08 4.834134000000000000e+06 7.165615286213447266e+11 2.134611782941630249e+11 4.999339000000000000e+06 1.938853234232931900e+10 2.180261453542196655e+11
5.250000000000000027e-08 4.825975000000000000e+06 7.149096345856229248e+11 2.352589709292221680e+11 4.999305000000000000e+06 1.938834044950991058e+10 2.404818443205928345e+11
5.500000000000000281e-08 4.817877000000000000e+06 7.132731010732714844e+11 2.580689549074659119e+11 4.999274000000000000e+06 1.938819039917700958e+10 2.640163819589688416e+11
5.749999999999999872e-08 4.809670000000000000e+06 7.116162975902536621e+11 2.818889532892092285e+11 4.999240000000000000e+06 1.938801534084984589e+10 2.886315807844815674e+11
6.000000000000000787e-08 4.801481000000000000e+06 7.099651969344222412e+11 3.067092926843009033e+11 4.999211000000000000e+06 1.938784337655297852e+10 3.143204906423362427e+11
6.249999999999999717e-08 4.793319000000000000e+06 7.083372732295585938e+11 3.325111315395329590e+11 4.999174000000000000e+06 1.938765713939871216e+10 3.410662923778385010e+11
6.499999999999999971e-08 4.785209000000000000e+06 7.067281551991783447e+11 3.592754512081870117e+11 4.999151000000000000e+06 1.938755286488210678e+10 3.688531251902177734e+11
6.750000000000000224e-08 4.777066000000000000e+06 7.051141130157387695e+11 3.870291923114215698e+11 4.999115000000000000e+06 1.938735806428944016e+10 3.977117232468921509e+11
7.000000000000000477e-08 4.769063000000000000e+06 7.035156512745949707e+11 4.157428964418958740e+11 4.999076000000000000e+06 1.938714077425324631e+10 4.276168732382497559e+11
7.250000000000000731e-08 4.760886000000000000e+06 7.019013004372479248e+11 4.454287119958696899e+11 4.999038000000000000e+06 1.938698920210752487e+10 4.585843165169592285e+11
7.499999999999999661e-08 4.752668000000000000e+06 7.002580853477644043e+11 4.760623457405286865e+11 4.999008000000000000e+06 1.938681592159113693e+10 4.905917312429920044e+11
7.749999999999999914e-08 4.744584000000000000e+06 6.986573494932731934e+11 5.076203568272781372e+11 4.998985000000000000e+06 1.938670849923244476e+10 5.236177698636681519e+11
8.000000000000000167e-08 4.736497000000000000e+06 6.970472351163267822e+11 5.400836702193211670e+11 4.998955000000000000e+06 1.938654851008966064e+10 5.576469844187902832e+11
8.250000000000000421e-08 4.728406000000000000e+06 6.954611940201437988e+11 5.734650447384432373e+11 4.998925000000000000e+06 1.938639257071011353e+10 5.926967836928135986e+11
8.500000000000000674e-08 4.720313000000000000e+06 6.938651483966561279e+11 6.077622507201127930e+11 4.998896000000000000e+06 1.938621461709796524e+10 6.287684912786773682e+11
8.749999999999999604e-08 4.712178000000000000e+06 6.922542372269494629e+11 6.429671468676722412e+11 4.998867000000000000e+06 1.938607228379091644e+10 6.658556278112009277e+11
8.999999999999999857e-08 4.704018000000000000e+06 6.906419953286801758e+11 6.790455239123085938e+11 4.998834000000000000e+06 1.938581921294860840e+10 7.039262325289458008e+11
9.250000000000000111e-08 4.695914000000000000e+06 6.890439733381486816e+11 7.159882797556866455e+11 4.998801000000000000e+06 1.938564399841014481e+10 7.429763002007976074e+11
9.500000000000000364e-08 4.687861000000000000e+06 6.874337211536079102e+11 7.538009633240251465e+11 4.998770000000000000e+06 1.938545560078472137e+10 7.830142278788974609e+11
9.750000000000000618e-08 4.679607000000000000e+06 6.857923674442065430e+11 7.924575487011000977e+11 4.998734000000000000e+06 1.938526760578826523e+10 8.240153525047136230e+11
9.999999999999999547e-08 4.671657000000000000e+06 6.842049563664428711e+11 8.319419422050611572e+11 4.998703000000000000e+06 1.938513419738328934e+10 8.659661436500546875e+11
1.024999999999999980e-07 4.663487000000000000e+06 6.826067817568881836e+11 8.722573095615521240e+11 4.998677000000000000e+06 1.938499448801819992e+10 9.088732351961264648e+11
1.050000000000000005e-07 4.655418000000000000e+06 6.810056101272348633e+11 9.134061277983024902e+11 4.998645000000000000e+06 1.938484312580249023e+10 9.527419665365727539e+11
1.075000000000000031e-07 4.647325000000000000e+06 6.794120554313315430e+11 9.553578504151712646e+11 4.998620000000000000e+06 1.938470345815978241e+10 9.975433268722854004e+11
1.100000000000000056e-07 4.639252000000000000e+06 6.778152376429760742e+11 9.981005619857016602e+11 4.998589000000000000e+06 1.938453079431362534e+10 1.043269117350743652e+12
1.125000000000000081e-07 4.631191000000000000e+06 6.762181563130762939e+11 1.041643942809965698e+12 4.998560000000000000e+06 1.938434511594334412e+10 1.089933223638359619e+12
1.149999999999999974e-07 4.623078000000000000e+06 6.745928130227459717e+11 1.085975029594364746e+12 4.998527000000000000e+06 1.938420285317142487e+10 1.137524022101410889e+12
1.175000000000000000e-07 4.615136000000000000e+06 6.730300175139777832e+11 1.131059076697592041e+12 4.998495000000000000e+06 1.938402670973497009e+10 1.186009877072146240e+12
1.200000000000000157e-07 4.607019000000000000e+06 6.714293857326489258e+11 1.176902909278608154e+12 4.998458000000000000e+06 1.938382038881775284e+10 1.235402116963649170e+12
1.224999999999999918e-07 4.598987000000000000e+06 6.698502738982249756e+11 1.223506256325104736e+12 4.998423000000000000e+06 1.938363867120570374e+10 1.285702708384241699e+12
1.249999999999999943e-07 4.590907000000000000e+06 6.682452008365905762e+11 1.270860817335377197e+12 4.998397000000000000e+06 1.938351175194274521e+10 1.336904543702098633e+12
1.274999999999999969e-07 4.582949000000000000e+06 6.666876960520998535e+11 1.318947884403681396e+12 4.998370000000000000e+06 1.938338445594176483e+10 1.388991412595372559e+12
1.299999999999999994e-07 4.575021000000000000e+06 6.651320320203079834e+11 1.367758065950256592e+12 4.998341000000000000e+06 1.938318789901808167e+10 1.441958977399082764e+12
1.325000000000000019e-07 4.567110000000000000e+06 6.635615229718481445e+11 1.417302251845060547e+12 4.998303000000000000e+06 1.938298383428571701e+10 1.495822408633239014e+12
1.350000000000000045e-07 4.559088000000000000e+06 6.619745003621767578e+11 1.467564707171549316e+12 4.998273000000000000e+06 1.938285039061966705e+10 1.550568263374210205e+12
1.375000000000000070e-07 4.551126000000000000e+06 6.604084548391929932e+11 1.518533660016574707e+12 4.998240000000000000e+06 1.938267586681966782e+10 1.606187562812186523e+12
1.400000000000000095e-07 4.542856000000000000e+06 6.587452306428725586e+11 1.570201255565230957e+12 4.998207000000000000e+06 1.938250339657808685e+10 1.662672209100272949e+12
1.425000000000000121e-07 4.534810000000000000e+06 6.571631620316549072e+11 1.622525295889970215e+12 4.998179000000000000e+06 1.938237764178602600e+10 1.719977563796173340e+12
1.450000000000000146e-07 4.526949000000000000e+06 6.556058813521564941e+11 1.675484364938675537e+12 4.998152000000000000e+06 1.938223032717825317e+10 1.778087658801869629e+12
1.474999999999999907e-07 4.519019000000000000e+06 6.540300485804299316e+11 1.729111039357472656e+12 4.998130000000000000e+06 1.938210358564646530e+10 1.837040713861483398e+12
1.499999999999999932e-07 4.511168000000000000e+06 6.524700620485260010e+11 1.783398221407031250e+12 4.998101000000000000e+06 1.938194313507333374e+10 1.896831963067133057e+12
1.524999999999999957e-07 4.503315000000000000e+06 6.509247361655974121e+11 1.838327081643173584e+12 4.998074000000000000e+06 1.938180925272452927e+10 1.957447056570429443e+12
1.549999999999999983e-07 4.495431000000000000e+06 6.493630973205959473e+11 1.893908676118896973e+12 4.998046000000000000e+06 1.938165076930634308e+10 2.018900788346920166e+12
1.575000000000000008e-07 4.487460000000000000e+06 6.477935151610544434e+11 1.950123039385576660e+12 4.998016000000000000e+06 1.938146139208082581e+10 2.081174728088920654e+12
1.600000000000000033e-07 4.479619000000000000e+06 6.462699410468033447e+11 2.006960350288792725e+12 4.997994000000000000e+06 1.938133725064353561e+10 2.144261909342072998e+12
1.625000000000000059e-07 4.471626000000000000e+06 6.446888248855844727e+11 2.064410002972207275e+12 4.997974000000000000e+06 1.938123634189137650e+10 2.208154370335404785e+12
1.650000000000000084e-07 4.463799000000000000e+06 6.431456106877641602e+11 2.122462654456251953e+12 4.997944000000000000e+06 1.938110693740424347e+10 2.272844094597554688e+12
1.675000000000000109e-07 4.455915000000000000e+06 6.415807644269704590e+11 2.181095532626244141e+12 4.997914000000000000e+06 1.938097078593073273e+10 2.338311185134625977e+12
1.700000000000000135e-07 4.447976000000000000e+06 6.400125897549520264e+11 2.240326901852125488e+12 4.997880000000000000e+06 1.938078110649513245e+10 2.404576593054376465e+12
1.725000000000000160e-07 4.440036000000000000e+06 6.384401111811960449e+11 2.300135173501981934e+12 4.997840000000000000e+06 1.938059127758545303e+10 2.471619225089224609e+12
1.749999999999999921e-07 4.432033000000000000e+06 6.368416646917753906e+11 2.360499625445277832e+12 4.997811000000000000e+06 1.938039814538427734e+10 2.539418342767075684e+12
1.774999999999999946e-07 4.424110000000000000e+06 6.352778965363566895e+11 2.421397201528081055e+12 4.997779000000000000e+06 1.938022805860063934e+10 2.607952488369651855e+12
1.799999999999999971e-07 4.416339000000000000e+06 6.337586768246734619e+11 2.482825103796950684e+12 4.997749000000000000e+06 1.938006592837824249e+10 2.677224727641625488e+12
1.824999999999999997e-07 4.408471000000000000e+06 6.322187730109394531e+11 2.544804957937239258e+12 4.997724000000000000e+06 1.937993336031848145e+10 2.747261825013600098e+12
1.850000000000000022e-07 4.400513000000000000e+06 6.306808049831004639e+11 2.607323567563854492e+12 4.997688000000000000e+06 1.937974441405037689e+10 2.818053969143909180e+12
1.875000000000000048e-07 4.392552000000000000e+06 6.291145680572819824e+11 2.670384291288214355e+12 4.997652000000000000e+06 1.937956197348199844e+10 2.889603365186702637e+12
1.900000000000000073e-07 4.384758000000000000e+06 6.275957074455541992e+11 2.733941199713229980e+12 4.997610000000000000e+06 1.937934400228443146e+10 2.961863700480245117e+12
1.925000000000000098e-07 4.376806000000000000e+06 6.260007527551812744e+11 2.798001595210851562e+12 4.997579000000000000e+06 1.937915765872815323e+10 3.034845732129877930e+12
1.950000000000000124e-07 4.369089000000000000e+06 6.244787049865031738e+11 2.862549214995842285e+12 4.997548000000000000e+06 1.937901504912377167e+10 3.108536575088280762e+12
1.975000000000000149e-07 4.361257000000000000e+06 6.229283723138604736e+11 2.927589145729633301e+12 4.997524000000000000e+06 1.937891378721104431e+10 3.182945017807159668e+12
1.999999999999999909e-07 4.353375000000000000e+06 6.213664236314797363e+11 2.993115287429378418e+12 4.997488000000000000e+06 1.937873633894745255e+10 3.258064378771998047e+12
2.024999999999999935e-07 4.345579000000000000e+06 6.198431375310446777e+11 3.059099410546042969e+12 4.997441000000000000e+06 1.937849484014386749e+10 3.333869182081331543e+12
2.049999999999999960e-07 4.337819000000000000e+06 6.183298452035156250e+11 3.125551247204596680e+12 4.997412000000000000e+06 1.937833956817253113e+10 3.410375930568619629e+12
2.074999999999999986e-07 4.329980000000000000e+06 6.168073374758317871e+11 3.192474907716733398e+12 4.997375000000000000e+06 1.937813341873976898e+10 3.487591316400201660e+12
2.100000000000000011e-07 4.322143000000000000e+06 6.152704138491347656e+11 3.259855465319520996e+12 4.997346000000000000e+06 1.937796719136652374e+10 3.565499805662433105e+12
2.125000000000000036e-07 4.314378000000000000e+06 6.137544690458410645e+11 3.327679567714733398e+12 4.997321000000000000e+06 1.937783538177104950e+10 3.644089374687772949e+12
2.150000000000000062e-07 4.306663000000000000e+06 6.122456428248786621e+11 3.395941137896262695e+12 4.997297000000000000e+06 1.937769950599727249e+10 3.723358193194723145e+12
2.175000000000000087e-07 4.299038000000000000e+06 6.107563950015571289e+11 3.464644689842501465e+12 4.997261000000000000e+06 1.937751660211363602e+10 3.803314435025978027e+12
2.200000000000000112e-07 4.291354000000000000e+06 6.092621805251901855e+11 3.533766607891684570e+12 4.997225000000000000e+06 1.937735599037517548e+10 3.883937212411265137e+12
2.225000000000000138e-07 4.283563000000000000e+06 6.077420998741207275e+11 3.603321098967354980e+12 4.997192000000000000e+06 1.937718882276848984e+10 3.965242542162282227e+12
2.250000000000000163e-07 4.275913000000000000e+06 6.062460613248314209e+11 3.673282793890304688e+12 4.997158000000000000e+06 1.937702302451562500e+10 4.047206449907916016e+12
2.274999999999999924e-07 4.268116000000000000e+06 6.047359614529541016e+11 3.743645574547023926e+12 4.997126000000000000e+06 1.937687558776799393e+10 4.129826753700570801e+12
2.299999999999999949e-07 4.260444000000000000e+06 6.032520135309721680e+11 3.814405282207242188e+12 4.997100000000000000e+06 1.937673007977654266e+10 4.213103156251181641e+12
2.324999999999999974e-07 4.252754000000000000e+06 6.017595748475129395e+11 3.885560485855461426e+12 4.997065000000000000e+06 1.937653666542745590e+10 4.297034852501796875e+12
2.350000000000000000e-07 4.245012000000000000e+06 6.002433950411000977e+11 3.957092045410714844e+12 4.997024000000000000e+06 1.937632950977247620e+10 4.381602905515542480e+12
2.375000000000000025e-07 4.237280000000000000e+06 5.987264114744073486e+11 4.028990198851359863e+12 4.996988000000000000e+06 1.937612892209473419e+10 4.466797965939204102e+12
2.400000000000000315e-07 4.229606000000000000e+06 5.972233628567866211e+11 4.101241174357746582e+12 4.996958000000000000e+06 1.937596678610679626e+10 4.552608010895745117e+12
2.425000000000000076e-07 4.221816000000000000e+06 5.957004433927631836e+11 4.173846712974212402e+12 4.996929000000000000e+06 1.937582404072809982e+10 4.639037615998920898e+12
2.449999999999999836e-07 4.214196000000000000e+06 5.942078347687208252e+11 4.246793103893074219e+12 4.996892000000000000e+06 1.937561505791813660e+10 4.726075178861932617e+12
2.475000000000000126e-07 4.206399000000000000e+06 5.926972909041121826e+11 4.320074940813113770e+12 4.996856000000000000e+06 1.937544302149979782e+10 4.813717531423490234e+12
2.499999999999999887e-07 4.198775000000000000e+06 5.911898000930192871e+11 4.393687577829705078e+12 4.996823000000000000e+06 1.937526663860457611e+10 4.901959940554821289e+12
2.525000000000000177e-07 4.190991000000000000e+06 5.896657334275534668e+11 4.467614123314161133e+12 4.996788000000000000e+06 1.937504310117928314e+10 4.990786580550142578e+12
2.549999999999999938e-07 4.183355000000000000e+06 5.881737123947623291e+11 4.541852675772618164e+12 4.996758000000000000e+06 1.937489669479638672e+10 5.080198234454093750e+12
2.575000000000000228e-07 4.175576000000000000e+06 5.866648042338996582e+11 4.616395321965410156e+12 4.996720000000000000e+06 1.937464537767757416e+10 5.170188387442294922e+12
2.599999999999999988e-07 4.167939000000000000e+06 5.851735512626226807e+11 4.691227606952301758e+12 4.996693000000000000e+06 1.937451373019687653e+10 5.260743677516544922e+12
2.625000000000000278e-07 4.160260000000000000e+06 5.836535920830930176e+11 4.766347027596534180e+12 4.996666000000000000e+06 1.937438442499201584e+10 5.351863232350514648e+12
2.650000000000000039e-07 4.152523000000000000e+06 5.821308402928406982e+11 4.841745217888075195e+12 4.996632000000000000e+06 1.937414405008998871e+10 5.443537588709504883e+12
2.674999999999999800e-07 4.145005000000000000e+06 5.806743521556325684e+11 4.917395766862879883e+12 4.996593000000000000e+06 1.937394886967520905e+10 5.535746039907828125e+12
2.700000000000000090e-07 4.137389000000000000e+06 5.791916224357951660e+11 4.993328523840022461e+12 4.996564000000000000e+06 1.937380068119464493e+10 5.628527247626755859e+12
2.724999999999999850e-07 4.129759000000000000e+06 5.777118777813460693e+11 5.069533110166952148e+12 4.996535000000000000e+06 1.937367988887614441e+10 5.721870633332895508e+12
2.750000000000000140e-07 4.121993000000000000e+06 5.761953930955217285e+11 5.145995992487532227e+12 4.996501000000000000e+06 1.937351802467638397e+10 5.815759834051172852e+12
2.774999999999999901e-07 4.114307000000000000e+06 5.747017397690507812e+11 5.222706749468557617e+12 4.996474000000000000e+06 1.937338662613797379e+10 5.910180008870841797e+12
2.800000000000000191e-07 4.106739000000000000e+06 5.732171204402685547e+11 5.299632969861500977e+12 4.996435000000000000e+06 1.937319490299325180e+10 6.005102550441717773e+12
