# time_tab [s], number_e [#], Ek_e [eV], qV_e [eV], number_i [#], Ek_i [eV], qV_i [eV]
0.000000000000000000e+00 4.999998000000000000e+06 7.497259036641315918e+11 1.380863095616340065e+10 4.999998000000000000e+06 1.938161088418150330e+10 1.428193067932573700e+10
2.500000000000000052e-09 4.991534000000000000e+06 7.480423348574417725e+11 1.381844538828969193e+10 4.999970000000000000e+06 1.938148696885472107e+10 1.428194698143364143e+10
5.000000000000000105e-09 4.983291000000000000e+06 7.464266849470932617e+11 1.431683547346172523e+10 4.999939000000000000e+06 1.938132210412330627e+10 1.476999416948347282e+10
7.500000000000000984e-09 4.975025000000000000e+06 7.447922715308842773e+11 1.592290888011486435e+10 4.999905000000000000e+06 1.938117594584376144e+10 1.636287471030288124e+10
1.000000000000000021e-08 4.966795000000000000e+06 7.431497186907951660e+11 1.861686523739433289e+10 4.999870000000000000e+06 1.938100222677939987e+10 1.904710986005464172e+10
1.249999999999999943e-08 4.958549000000000000e+06 7.415021896183537598e+11 2.235998390158858109e+10 4.999840000000000000e+06 1.938087026023800659e+10 2.278913535879593658e+10
1.500000000000000197e-08 4.950481000000000000e+06 7.398672715429204102e+11 2.711708283533547211e+10 4.999806000000000000e+06 1.938071934205765152e+10 2.755798662912648773e+10
1.750000000000000119e-08 4.942551000000000000e+06 7.382547003268659668e+11 3.284270420681751633e+10 4.999780000000000000e+06 1.938056975969842148e+10 3.331191739487273026e+10
2.000000000000000042e-08 4.934900000000000000e+06 7.366946186763878174e+11 3.952104748700700378e+10 4.999740000000000000e+06 1.938039442503332138e+10 4.003880562013909149e+10
2.249999999999999964e-08 4.927132000000000000e+06 7.350735870013194580e+11 4.714917266009281921e+10 4.999703000000000000e+06 1.938022840050128555e+10 4.773895990995475769e+10
2.499999999999999887e-08 4.919462000000000000e+06 7.334559849994228516e+11 5.564956643859487915e+10 4.999672000000000000e+06 1.938009447139564896e+10 5.633733547463275146e+10
2.750000000000000140e-08 4.912084000000000000e+06 7.318585043231864014e+11 6.496756787248882294e+10 4.999637000000000000e+06 1.937998192349125671e+10 6.578107711443850708e+10
3.000000000000000394e-08 4.905003000000000000e+06 7.302942858324233398e+11 7.506727452351867676e+10 4.999611000000000000e+06 1.937989958970075226e+10 7.603552100502023315e+10
3.249999999999999985e-08 4.898080000000000000e+06 7.287182994893476562e+11 8.590579828700511169e+10 4.999584000000000000e+06 1.937982030840876389e+10 8.705861854433924866e+10
3.500000000000000239e-08 4.891289000000000000e+06 7.271790059250288086e+11 9.746299964177990723e+10 4.999552000000000000e+06 1.937972638639675140e+10 9.883002683342143250e+10
3.749999999999999830e-08 4.884500000000000000e+06 7.255827765393341064e+11 1.096521725958748779e+11 4.999519000000000000e+06 1.937968541635340881e+10 1.112617475223202972e+11
4.000000000000000084e-08 4.878121000000000000e+06 7.240544446344248047e+11 1.224006627838594360e+11 4.999493000000000000e+06 1.937966583767031097e+10 1.242792031688533325e+11
4.250000000000000337e-08 4.871860000000000000e+06 7.225208446983034668e+11 1.356337062341715240e+11 4.999458000000000000e+06 1.937966338862799835e+10 1.378061603555086670e+11
4.499999999999999929e-08 4.865905000000000000e+06 7.210341882531826172e+11 1.493084398671789246e+11 4.999430000000000000e+06 1.937971549589165115e+10 1.517978080735956726e+11
4.750000000000000182e-08 4.860306000000000000e+06 7.195986793688488770e+11 1.633512020397866211e+11 4.999389000000000000e+06 1.937971919867073822e+10 1.661778017270737000e+11
4.999999999999999774e-08 4.854791000000000000e+06 7.181712025580747070e+11 1.777061274523537292e+11 4.999357000000000000e+06 1.937981991483206177e+10 1.808866420637662964e+11
5.250000000000000027e-08 4.849554000000000000e+06 7.168022121230180664e+11 1.922868896982814636e+11 4.999314000000000000e+06 1.937989806611313629e+10 1.958340589052341003e+11
5.500000000000000281e-08 4.844540000000000000e+06 7.154582270582580566e+11 2.070262305038133240e+11 4.999274000000000000e+06 1.938002632267396164e+10 2.109489789881407166e+11
5.749999999999999872e-08 4.839690000000000000e+06 7.141621789516918945e+11 2.218630487556618652e+11 4.999232000000000000e+06 1.938024098644204712e+10 2.261664359971303101e+11
6.000000000000000787e-08 4.834966000000000000e+06 7.128915923168647461e+11 2.367093694320099792e+11 4.999205000000000000e+06 1.938058021471964264e+10 2.413945685791259766e+11
6.249999999999999717e-08 4.830485000000000000e+06 7.116579585120947266e+11 2.514692727611602173e+11 4.999148000000000000e+06 1.938085455195191193e+10 2.565328694747930908e+11
6.499999999999999971e-08 4.826125000000000000e+06 7.104756854613516846e+11 2.660708883145430908e+11 4.999108000000000000e+06 1.938125297301272583e+10 2.715049948731793213e+11
6.750000000000000224e-08 4.821976000000000000e+06 7.093407003044016113e+11 2.804147024049472046e+11 4.999076000000000000e+06 1.938182106245633316e+10 2.862071390220668335e+11
7.000000000000000477e-08 4.818130000000000000e+06 7.083026884241364746e+11 2.944295316132209473e+11 4.999034000000000000e+06 1.938242289181925201e+10 3.005646563935581665e+11
7.250000000000000731e-08 4.814310000000000000e+06 7.072715029554515381e+11 3.080386226947723999e+11 4.998995000000000000e+06 1.938313757877007294e+10 3.144978498498447876e+11
7.499999999999999661e-08 4.810793000000000000e+06 7.063288942362197266e+11 3.211631585030591431e+11 4.998964000000000000e+06 1.938394685433633804e+10 3.279257202642697754e+11
7.749999999999999914e-08 4.807409000000000000e+06 7.054185452214399414e+11 3.337409210913526611e+11 4.998919000000000000e+06 1.938477512276049042e+10 3.407842198769958496e+11
8.000000000000000167e-08 4.804204000000000000e+06 7.045648582796695557e+11 3.456964343690527344e+11 4.998871000000000000e+06 1.938569443746359253e+10 3.529963892923288574e+11
8.250000000000000421e-08 4.801024000000000000e+06 7.037537102522731934e+11 3.569658875140357666e+11 4.998829000000000000e+06 1.938673465090665054e+10 3.644967777969647827e+11
8.500000000000000674e-08 4.798019000000000000e+06 7.029998949345581055e+11 3.674758096796382446e+11 4.998789000000000000e+06 1.938788154574027252e+10 3.752112984679381104e+11
8.749999999999999604e-08 4.795275000000000000e+06 7.023215078796110840e+11 3.771755453444957275e+11 4.998745000000000000e+06 1.938911698425876236e+10 3.850895305913303223e+11
8.999999999999999857e-08 4.792442000000000000e+06 7.016503394358972168e+11 3.860205413239895630e+11 4.998700000000000000e+06 1.939046706215280533e+10 3.940869726520394287e+11
9.250000000000000111e-08 4.789818000000000000e+06 7.010382542938762207e+11 3.939658436715853271e+11 4.998664000000000000e+06 1.939196065000257492e+10 4.021589226164156494e+11
9.500000000000000364e-08 4.787349000000000000e+06 7.004828487995544434e+11 4.009630978489354858e+11 4.998623000000000000e+06 1.939349509274365234e+10 4.092581630261083374e+11
9.750000000000000618e-08 4.784947000000000000e+06 6.999528750726228027e+11 4.069927024684520264e+11 4.998578000000000000e+06 1.939514476057021713e+10 4.153677441317703857e+11
9.999999999999999547e-08 4.782640000000000000e+06 6.994710823053839111e+11 4.120353403910278931e+11 4.998542000000000000e+06 1.939694258113865280e+10 4.204704452858192139e+11
1.024999999999999980e-07 4.780441000000000000e+06 6.990101681175803223e+11 4.160722967464082031e+11 4.998494000000000000e+06 1.939878708734268951e+10 4.245504406490317383e+11
1.050000000000000005e-07 4.778258000000000000e+06 6.985708199277738037e+11 4.191192098234741211e+11 4.998451000000000000e+06 1.940074186843605042e+10 4.276257999075487061e+11
1.075000000000000031e-07 4.776123000000000000e+06 6.981522601764378662e+11 4.211577817416217041e+11 4.998413000000000000e+06 1.940274668207237244e+10 4.296805375190153809e+11
1.100000000000000056e-07 4.774069000000000000e+06 6.977735215763858643e+11 4.222093267151793213e+11 4.998374000000000000e+06 1.940490577152252960e+10 4.307380826784075317e+11
1.125000000000000081e-07 4.772079000000000000e+06 6.973984164584094238e+11 4.222843427247406006e+11 4.998321000000000000e+06 1.940704905626501846e+10 4.308119763250853882e+11
1.149999999999999974e-07 4.770107000000000000e+06 6.970368918095257568e+11 4.214181748586851807e+11 4.998267000000000000e+06 1.940926209468599319e+10 4.299408481503681030e+11
1.175000000000000000e-07 4.768254000000000000e+06 6.966938042541361084e+11 4.196506228609224854e+11 4.998219000000000000e+06 1.941161920194504547e+10 4.281672013824526367e+11
1.200000000000000157e-07 4.766262000000000000e+06 6.963202610760537109e+11 4.170335448645543213e+11 4.998154000000000000e+06 1.941389161599471664e+10 4.255453176852083130e+11
1.224999999999999918e-07 4.764379000000000000e+06 6.959527654053684082e+11 4.136114930816197510e+11 4.998096000000000000e+06 1.941634451289324188e+10 4.221210973523792114e+11
1.249999999999999943e-07 4.762593000000000000e+06 6.956010922086573486e+11 4.094359673359298096e+11 4.998051000000000000e+06 1.941895077135298157e+10 4.179478600266252441e+11
1.274999999999999969e-07 4.760854000000000000e+06 6.952586533492250977e+11 4.045854322359149780e+11 4.998009000000000000e+06 1.942164404313742447e+10 4.131061837451442871e+11
1.299999999999999994e-07 4.759119000000000000e+06 6.949009612457170410e+11 3.991463490374094238e+11 4.997966000000000000e+06 1.942445588407785034e+10 4.076849037205908203e+11
1.325000000000000019e-07 4.757422000000000000e+06 6.945379122991206055e+11 3.932025782902579346e+11 4.997907000000000000e+06 1.942724416567981720e+10 4.017703010997855225e+11
1.350000000000000045e-07 4.755736000000000000e+06 6.941613706205333252e+11 3.868349073666112671e+11 4.997852000000000000e+06 1.943007377635009766e+10 3.954442533865697021e+11
1.375000000000000070e-07 4.754083000000000000e+06 6.937734671748371582e+11 3.801267902215733032e+11 4.997802000000000000e+06 1.943302785900285339e+10 3.887903019564310303e+11
1.400000000000000095e-07 4.752411000000000000e+06 6.933708794779172363e+11 3.731605760578364868e+11 4.997747000000000000e+06 1.943605631327240372e+10 3.818909746613211060e+11
1.425000000000000121e-07 4.750770000000000000e+06 6.929598880671633301e+11 3.660383580513058472e+11 4.997683000000000000e+06 1.943914583369192505e+10 3.748488556175704956e+11
1.450000000000000146e-07 4.749170000000000000e+06 6.925430892225288086e+11 3.588482208467460938e+11 4.997632000000000000e+06 1.944234430755051041e+10 3.677519596169014282e+11
1.474999999999999907e-07 4.747582000000000000e+06 6.921110883789860840e+11 3.516886190395084839e+11 4.997567000000000000e+06 1.944561912857383728e+10 3.606989769114913330e+11
1.499999999999999932e-07 4.746024000000000000e+06 6.916750347850349121e+11 3.446548632420579834e+11 4.997519000000000000e+06 1.944907718852737427e+10 3.537848896012262573e+11
1.524999999999999957e-07 4.744421000000000000e+06 6.912168951387822266e+11 3.378383790169154053e+11 4.997468000000000000e+06 1.945261847212842941e+10 3.471009537979033813e+11
1.549999999999999983e-07 4.742796000000000000e+06 6.907322151031715088e+11 3.313352889973789673e+11 4.997408000000000000e+06 1.945621017931062698e+10 3.407427643230191650e+11
1.575000000000000008e-07 4.741143000000000000e+06 6.902504041577092285e+11 3.252239821269939575e+11 4.997346000000000000e+06 1.945987920426649094e+10 3.347866671866514893e+11
1.600000000000000033e-07 4.739492000000000000e+06 6.897400468809832764e+11 3.195793347831054077e+11 4.997290000000000000e+06 1.946379975354490662e+10 3.293058457861855469e+11
1.625000000000000059e-07 4.737879000000000000e+06 6.892459989796457520e+11 3.144775855567574463e+11 4.997225000000000000e+06 1.946774060827638245e+10 3.243758517627326050e+11
1.650000000000000084e-07 4.736239000000000000e+06 6.887291514153234863e+11 3.099890122463745728e+11 4.997177000000000000e+06 1.947190272333733749e+10 3.200664254144776611e+11
1.675000000000000109e-07 4.734692000000000000e+06 6.882211104672360840e+11 3.061850358960523071e+11 4.997113000000000000e+06 1.947618268230696106e+10 3.164486500668999634e+11
1.700000000000000135e-07 4.733114000000000000e+06 6.877052048198706055e+11 3.031260573376488037e+11 4.997035000000000000e+06 1.948046775385491943e+10 3.135837334751335449e+11
1.725000000000000160e-07 4.731498000000000000e+06 6.871726449002661133e+11 3.008708561564296265e+11 4.996966000000000000e+06 1.948496722911280823e+10 3.115304878589987793e+11
1.749999999999999921e-07 4.729859000000000000e+06 6.866242905329849854e+11 2.994558950045118408e+11 4.996903000000000000e+06 1.948963130043289185e+10 3.103240752506214600e+11
1.774999999999999946e-07 4.728216000000000000e+06 6.860774187961433105e+11 2.989082647297772827e+11 4.996829000000000000e+06 1.949434228653328323e+10 3.099897121408074341e+11
1.799999999999999971e-07 4.726484000000000000e+06 6.855012508231069336e+11 2.992536006729609375e+11 4.996749000000000000e+06 1.949925369398852539e+10 3.105511048833526001e+11
1.824999999999999997e-07 4.724832000000000000e+06 6.849483276128150635e+11 3.004993007949920654e+11 4.996694000000000000e+06 1.950450669798194885e+10 3.120161083433580322e+11
1.850000000000000022e-07 4.723238000000000000e+06 6.843978746143093262e+11 3.026652839062989502e+11 4.996627000000000000e+06 1.950987996704449463e+10 3.144055228740925903e+11
1.875000000000000048e-07 4.721656000000000000e+06 6.838491076924416504e+11 3.057527155782919922e+11 4.996547000000000000e+06 1.951527946801720810e+10 3.177207081351873169e+11
1.900000000000000073e-07 4.720093000000000000e+06 6.832945460992987061e+11 3.097593215808340454e+11 4.996491000000000000e+06 1.952108483356917953e+10 3.219602140717590332e+11
1.925000000000000098e-07 4.718365000000000000e+06 6.826962125623031006e+11 3.146650476282994385e+11 4.996419000000000000e+06 1.952698128134606934e+10 3.271034275668146362e+11
1.950000000000000124e-07 4.716724000000000000e+06 6.821076142880473633e+11 3.204319208066418457e+11 4.996342000000000000e+06 1.953299214480360413e+10 3.331111436610066528e+11
1.975000000000000149e-07 4.715132000000000000e+06 6.815374861280620117e+11 3.270204211923582764e+11 4.996259000000000000e+06 1.953916982047874451e+10 3.399429584308521729e+11
1.999999999999999909e-07 4.713518000000000000e+06 6.809575597446329346e+11 3.343903078080195923e+11 4.996171000000000000e+06 1.954555235498593140e+10 3.475593519070346069e+11
2.024999999999999935e-07 4.711899000000000000e+06 6.803722654097922363e+11 3.424911642751190186e+11 4.996091000000000000e+06 1.955215572019927979e+10 3.559098256744317017e+11
2.049999999999999960e-07 4.710319000000000000e+06 6.798009663476499023e+11 3.512764400567229004e+11 4.996010000000000000e+06 1.955900916981862259e+10 3.649476901736564941e+11
2.074999999999999986e-07 4.708767000000000000e+06 6.792239327974880371e+11 3.606781408219530029e+11 4.995927000000000000e+06 1.956604408110719299e+10 3.746049958078054199e+11
2.100000000000000011e-07 4.707127000000000000e+06 6.786207178968918457e+11 3.706236608878566895e+11 4.995837000000000000e+06 1.957325585338393784e+10 3.848080989834280396e+11
2.125000000000000036e-07 4.705555000000000000e+06 6.780416593488333740e+11 3.810268815897706299e+11 4.995747000000000000e+06 1.958071912615325928e+10 3.954695005747574463e+11
2.150000000000000062e-07 4.703931000000000000e+06 6.774632826599659424e+11 3.918066456911751709e+11 4.995660000000000000e+06 1.958835125061866760e+10 4.065072923616514282e+11
2.175000000000000087e-07 4.702360000000000000e+06 6.768810419428868408e+11 4.028860642265137939e+11 4.995577000000000000e+06 1.959631202847671890e+10 4.178439338161040039e+11
2.200000000000000112e-07 4.700814000000000000e+06 6.763155456337556152e+11 4.141771593732643433e+11 4.995501000000000000e+06 1.960447373509015656e+10 4.293904493621077271e+11
2.225000000000000138e-07 4.699263000000000000e+06 6.757438363495045166e+11 4.255982995593633423e+11 4.995435000000000000e+06 1.961301161960558319e+10 4.410638216053713379e+11
2.250000000000000163e-07 4.697790000000000000e+06 6.751921714619073486e+11 4.370560642901476440e+11 4.995346000000000000e+06 1.962162375359622192e+10 4.527684523354729614e+11
2.274999999999999924e-07 4.696295000000000000e+06 6.746509428301867676e+11 4.484582849222929077e+11 4.995253000000000000e+06 1.963040431214576340e+10 4.644114995906857910e+11
2.299999999999999949e-07 4.694849000000000000e+06 6.741173319685091553e+11 4.597264644645772705e+11 4.995159000000000000e+06 1.963941511409779358e+10 4.759135980729486084e+11
2.324999999999999974e-07 4.693405000000000000e+06 6.736071400644641113e+11 4.707711905388092651e+11 4.995076000000000000e+06 1.964881339898632431e+10 4.871841520177915649e+11
2.350000000000000000e-07 4.692033000000000000e+06 6.731102435778016357e+11 4.815067510096108398e+11 4.994971000000000000e+06 1.965819498479439545e+10 4.981363888004692993e+11
2.375000000000000025e-07 4.690698000000000000e+06 6.726353506630505371e+11 4.918588501672979736e+11 4.994876000000000000e+06 1.966793623327062225e+10 5.086957098467197266e+11
2.400000000000000315e-07 4.689311000000000000e+06 6.721735901919719238e+11 5.017526836656214600e+11 4.994785000000000000e+06 1.967798021110028076e+10 5.187858697325645142e+11
2.425000000000000076e-07 4.687976000000000000e+06 6.717239138828349609e+11 5.111087500404719238e+11 4.994675000000000000e+06 1.968793235016138458e+10 5.283254154158812256e+11
2.449999999999999836e-07 4.686619000000000000e+06 6.712732139252153320e+11 5.198622984599962769e+11 4.994576000000000000e+06 1.969841435019072723e+10 5.372491594007350464e+11
2.475000000000000126e-07 4.685371000000000000e+06 6.708723740016414795e+11 5.279425600332488403e+11 4.994477000000000000e+06 1.970902173161013794e+10 5.454859866883762817e+11
2.499999999999999887e-07 4.684093000000000000e+06 6.704806710033486328e+11 5.352998410572362061e+11 4.994388000000000000e+06 1.971988846583095551e+10 5.529864069927264404e+11
2.525000000000000177e-07 4.682831000000000000e+06 6.701125395258947754e+11 5.418886161078613281e+11 4.994274000000000000e+06 1.973075712966893768e+10 5.597045428644407959e+11
2.549999999999999938e-07 4.681689000000000000e+06 6.697710678369248047e+11 5.476635250007588501e+11 4.994171000000000000e+06 1.974205010195819092e+10 5.655953295711571045e+11
2.575000000000000228e-07 4.680515000000000000e+06 6.694378226288111572e+11 5.525984920847257080e+11 4.994068000000000000e+06 1.975348272254328918e+10 5.706340824344331055e+11
2.599999999999999988e-07 4.679419000000000000e+06 6.691322500438095703e+11 5.566688178152257080e+11 4.993972000000000000e+06 1.976520998094772339e+10 5.747964264627058105e+11
2.625000000000000278e-07 4.678266000000000000e+06 6.688161611069687500e+11 5.598533073693029785e+11 4.993864000000000000e+06 1.977695068549168015e+10 5.780616992957559814e+11
2.650000000000000039e-07 4.677134000000000000e+06 6.685212378800567627e+11 5.621461507957384033e+11 4.993760000000000000e+06 1.978902448080171204e+10 5.804246913506646729e+11
2.674999999999999800e-07 4.676069000000000000e+06 6.682513543316513672e+11 5.635378496420980225e+11 4.993655000000000000e+06 1.980130956486050415e+10 5.818768292264132080e+11
2.700000000000000090e-07 4.675011000000000000e+06 6.679818287261744385e+11 5.640362148267757568e+11 4.993537000000000000e+06 1.981364811092343903e+10 5.824273031051542969e+11
2.724999999999999850e-07 4.673975000000000000e+06 6.677211384403052979e+11 5.636567686845999756e+11 4.993424000000000000e+06 1.982623354280065918e+10 5.820926309963192139e+11
2.750000000000000140e-07 4.672937000000000000e+06 6.674700211939661865e+11 5.624214872819959717e+11 4.993334000000000000e+06 1.983930029215378571e+10 5.808960383701381836e+11
2.774999999999999901e-07 4.671938000000000000e+06 6.672395940770726318e+11 5.603626216457132568e+11 4.993226000000000000e+06 1.985226134983229828e+10 5.788714712045982666e+11
2.800000000000000191e-07 4.671049000000000000e+06 6.670286724146285400e+11 5.575261424074223633e+11 4.993123000000000000e+06 1.986556745384769440e+10 5.760666538321849365e+11
