# time_tab [s], number_e [#], Ek_e [eV], qV_e [eV], number_i [#], Ek_i [eV], qV_i [eV]
0.000000000000000000e+00 4.999998000000000000e+06 7.497878815333404541e+11 1.031841930784950066e+10 4.999998000000000000e+06 1.938913484131831360e+10 1.083589511507056808e+10
2.500000000000000052e-09 4.991443000000000000e+06 7.480498774436176758e+11 1.032968096878484154e+10 4.999967000000000000e+06 1.938893376987540054e+10 1.083590633020865250e+10
5.000000000000000105e-09 4.983016000000000000e+06 7.463992410219765625e+11 1.080527422040400505e+10 4.999933000000000000e+06 1.938872706656653595e+10 1.129823617971980095e+10
7.500000000000000984e-09 4.974745000000000000e+06 7.447541009308817139e+11 1.237167009329758644e+10 4.999908000000000000e+06 1.938861913867125320e+10 1.284775539660148239e+10
1.000000000000000021e-08 4.966464000000000000e+06 7.430921025198343506e+11 1.505153173003314972e+10 4.999878000000000000e+06 1.938847611202864838e+10 1.551345989622084808e+10
1.249999999999999943e-08 4.958289000000000000e+06 7.414616353119219971e+11 1.880515380337593842e+10 4.999842000000000000e+06 1.938831649109487152e+10 1.926136186729213333e+10
1.500000000000000197e-08 4.950320000000000000e+06 7.398556331231501465e+11 2.361174224269689560e+10 4.999804000000000000e+06 1.938814976506561661e+10 2.407531574703837967e+10
1.750000000000000119e-08 4.942199000000000000e+06 7.382067764230966797e+11 2.944739574545896149e+10 4.999773000000000000e+06 1.938802507446274567e+10 2.993555952529975510e+10
2.000000000000000042e-08 4.934357000000000000e+06 7.365925175641245117e+11 3.625594079043056488e+10 4.999736000000000000e+06 1.938784356410198212e+10 3.678999827345285034e+10
2.249999999999999964e-08 4.926625000000000000e+06 7.349865238472659912e+11 4.400280426684699249e+10 4.999708000000000000e+06 1.938776468736653900e+10 4.460702914275522614e+10
2.499999999999999887e-08 4.919068000000000000e+06 7.333726349468225098e+11 5.265153139708549500e+10 4.999681000000000000e+06 1.938764929431147766e+10 5.335216967614460754e+10
2.750000000000000140e-08 4.911464000000000000e+06 7.317429689656335449e+11 6.216045523545895386e+10 4.999643000000000000e+06 1.938750162354430389e+10 6.298535204413903046e+10
3.000000000000000394e-08 4.904242000000000000e+06 7.301708657270419922e+11 7.246941518358474731e+10 4.999610000000000000e+06 1.938740609786771393e+10 7.344741379312017822e+10
3.249999999999999985e-08 4.897329000000000000e+06 7.286188052410089111e+11 8.351977135918479919e+10 4.999575000000000000e+06 1.938734094560387039e+10 8.468102336093778992e+10
3.500000000000000239e-08 4.890602000000000000e+06 7.270651229825838623e+11 9.527847442041821289e+10 4.999541000000000000e+06 1.938724682083717346e+10 9.665424349443066406e+10
3.749999999999999830e-08 4.883943000000000000e+06 7.255227260458255615e+11 1.077076917491712646e+11 4.999505000000000000e+06 1.938713754332138443e+10 1.093280532612374115e+11
4.000000000000000084e-08 4.877447000000000000e+06 7.239711878728027344e+11 1.207044846836903992e+11 4.999469000000000000e+06 1.938706926988429260e+10 1.225972400481607819e+11
4.250000000000000337e-08 4.871445000000000000e+06 7.224923123403383789e+11 1.342189235392678986e+11 4.999433000000000000e+06 1.938704585919287109e+10 1.364101516643249207e+11
4.499999999999999929e-08 4.865592000000000000e+06 7.210341020982307129e+11 1.481850983195620728e+11 4.999393000000000000e+06 1.938704452825545120e+10 1.506994346613615417e+11
4.750000000000000182e-08 4.859704000000000000e+06 7.195302120014125977e+11 1.625581289111976929e+11 4.999358000000000000e+06 1.938710301526063919e+10 1.654179454582671204e+11
4.999999999999999774e-08 4.854187000000000000e+06 7.180917633011315918e+11 1.772386169848896179e+11 4.999321000000000000e+06 1.938717731270941544e+10 1.804618649149788818e+11
5.250000000000000027e-08 4.848950000000000000e+06 7.167143960527145996e+11 1.921350548284402161e+11 4.999297000000000000e+06 1.938738215303450394e+10 1.957357834699594421e+11
5.500000000000000281e-08 4.843640000000000000e+06 7.153081209732761230e+11 2.071913846691416931e+11 4.999270000000000000e+06 1.938762505527449799e+10 2.111796716122231445e+11
5.749999999999999872e-08 4.838772000000000000e+06 7.139975783080899658e+11 2.223062387224747314e+11 4.999235000000000000e+06 1.938787028043255234e+10 2.266874201847481689e+11
6.000000000000000787e-08 4.834111000000000000e+06 7.127138921166071777e+11 2.374031934549596558e+11 4.999195000000000000e+06 1.938816195360710144e+10 2.421788883687639160e+11
6.249999999999999717e-08 4.829581000000000000e+06 7.114383594249379883e+11 2.524126372885568848e+11 4.999155000000000000e+06 1.938852874660453033e+10 2.575795886691568298e+11
6.499999999999999971e-08 4.825229000000000000e+06 7.102330029257587891e+11 2.672340881309733582e+11 4.999127000000000000e+06 1.938904831840785217e+10 2.727837052988907776e+11
6.750000000000000224e-08 4.821225000000000000e+06 7.090949846275168457e+11 2.817870408835609741e+11 4.999093000000000000e+06 1.938958563028297043e+10 2.877071745597998657e+11
7.000000000000000477e-08 4.817346000000000000e+06 7.080177093407011719e+11 2.960109342076298828e+11 4.999047000000000000e+06 1.939012360952300262e+10 3.022861768051784668e+11
7.250000000000000731e-08 4.813567000000000000e+06 7.069783950833581543e+11 3.098269226919960938e+11 4.999018000000000000e+06 1.939086926130427933e+10 3.164388561958237305e+11
7.499999999999999661e-08 4.809960000000000000e+06 7.059900359136955566e+11 3.231519160373240967e+11 4.998981000000000000e+06 1.939170514626027679e+10 3.300788486898388062e+11
7.749999999999999914e-08 4.806574000000000000e+06 7.050755223449746094e+11 3.358980168026668701e+11 4.998949000000000000e+06 1.939262247657020569e+10 3.431156114091813354e+11
8.000000000000000167e-08 4.803245000000000000e+06 7.041981953281479492e+11 3.480081508146907959e+11 4.998897000000000000e+06 1.939354283008853912e+10 3.554908642070078125e+11
8.250000000000000421e-08 4.800107000000000000e+06 7.033947320832165527e+11 3.594074971721185913e+11 4.998858000000000000e+06 1.939462928181823730e+10 3.671277107700689697e+11
8.500000000000000674e-08 4.797085000000000000e+06 7.026384611275996094e+11 3.700254615949219971e+11 4.998818000000000000e+06 1.939580651952919388e+10 3.779543812824219360e+11
8.749999999999999604e-08 4.794256000000000000e+06 7.019583457994418945e+11 3.798183631695570679e+11 4.998784000000000000e+06 1.939711271277742004e+10 3.879272363038075562e+11
8.999999999999999857e-08 4.791594000000000000e+06 7.013175886800651855e+11 3.887386523124432983e+11 4.998740000000000000e+06 1.939846550909496307e+10 3.969996453455754395e+11
9.250000000000000111e-08 4.788998000000000000e+06 7.007225662240159912e+11 3.967484043157183838e+11 4.998699000000000000e+06 1.939991610293062973e+10 4.051346831290394287e+11
9.500000000000000364e-08 4.786434000000000000e+06 7.001500594420546875e+11 4.038080971172208252e+11 4.998639000000000000e+06 1.940138692527805328e+10 4.122942405710308838e+11
9.750000000000000618e-08 4.783944000000000000e+06 6.996248517241481934e+11 4.098801469794168701e+11 4.998606000000000000e+06 1.940310375274141693e+10 4.184418279222224121e+11
9.999999999999999547e-08 4.781560000000000000e+06 6.991302691849787598e+11 4.149360402734409790e+11 4.998560000000000000e+06 1.940483463881387329e+10 4.235510392786996460e+11
1.024999999999999980e-07 4.779247000000000000e+06 6.986777401842927246e+11 4.189606211280819702e+11 4.998507000000000000e+06 1.940664260191046143e+10 4.276096178940977173e+11
1.050000000000000005e-07 4.776993000000000000e+06 6.982458372560142822e+11 4.219555920724146729e+11 4.998464000000000000e+06 1.940855937013473511e+10 4.306221498295450439e+11
1.075000000000000031e-07 4.774846000000000000e+06 6.978364621042614746e+11 4.239238112025570068e+11 4.998428000000000000e+06 1.941061806853770828e+10 4.325945040444969482e+11
1.100000000000000056e-07 4.772835000000000000e+06 6.974677977263088379e+11 4.248816663333308105e+11 4.998384000000000000e+06 1.941276746344980621e+10 4.335463452127980347e+11
1.125000000000000081e-07 4.770833000000000000e+06 6.971099543088968506e+11 4.248554748233796997e+11 4.998333000000000000e+06 1.941496834548500061e+10 4.335078571579725342e+11
1.149999999999999974e-07 4.768910000000000000e+06 6.967705457573883057e+11 4.238903096732569580e+11 4.998294000000000000e+06 1.941731590291097260e+10 4.325269850213483276e+11
1.175000000000000000e-07 4.766935000000000000e+06 6.964226396293808594e+11 4.220175591911936035e+11 4.998245000000000000e+06 1.941966897949440765e+10 4.306374140211685791e+11
1.200000000000000157e-07 4.765165000000000000e+06 6.960977016398671875e+11 4.192819880736946411e+11 4.998196000000000000e+06 1.942214585319501877e+10 4.278867339786665649e+11
1.224999999999999918e-07 4.763319000000000000e+06 6.957543774814125977e+11 4.157420256642634888e+11 4.998145000000000000e+06 1.942468192635451508e+10 4.243363052509714966e+11
1.249999999999999943e-07 4.761537000000000000e+06 6.954100589590891113e+11 4.114670730069541626e+11 4.998089000000000000e+06 1.942728183207281494e+10 4.200569666426096191e+11
1.274999999999999969e-07 4.759775000000000000e+06 6.950572157803488770e+11 4.065206165337019043e+11 4.998029000000000000e+06 1.942989488690007782e+10 4.151136549408015137e+11
1.299999999999999994e-07 4.758040000000000000e+06 6.947047042071679688e+11 4.009713972413164673e+11 4.997969000000000000e+06 1.943264941004190826e+10 4.095770460120787964e+11
1.325000000000000019e-07 4.756365000000000000e+06 6.943540968924041748e+11 3.949028740247581177e+11 4.997906000000000000e+06 1.943538652587103271e+10 4.035319835058142700e+11
1.350000000000000045e-07 4.754723000000000000e+06 6.939888899635716553e+11 3.884033193824196777e+11 4.997860000000000000e+06 1.943838511624126434e+10 3.970682783817374878e+11
1.375000000000000070e-07 4.753109000000000000e+06 6.936235036744545898e+11 3.815618154012080078e+11 4.997803000000000000e+06 1.944136488976658249e+10 3.902759916899903564e+11
1.400000000000000095e-07 4.751519000000000000e+06 6.932399913424248047e+11 3.744783980234808960e+11 4.997756000000000000e+06 1.944454887562609863e+10 3.832554124366632690e+11
1.425000000000000121e-07 4.749865000000000000e+06 6.928333904883937988e+11 3.672443530334922485e+11 4.997702000000000000e+06 1.944770215641471100e+10 3.760980968773789062e+11
1.450000000000000146e-07 4.748305000000000000e+06 6.924270091353120117e+11 3.599528110095872803e+11 4.997647000000000000e+06 1.945097832269969559e+10 3.688966107385693359e+11
1.474999999999999907e-07 4.746739000000000000e+06 6.920050964596794434e+11 3.527041251328815918e+11 4.997590000000000000e+06 1.945437314544878387e+10 3.617504950240359497e+11
1.499999999999999932e-07 4.745137000000000000e+06 6.915717694421762695e+11 3.455853316224998169e+11 4.997536000000000000e+06 1.945791753278582001e+10 3.547461097135676270e+11
1.524999999999999957e-07 4.743515000000000000e+06 6.911099889464038086e+11 3.386915330261708374e+11 4.997467000000000000e+06 1.946144845802349854e+10 3.479787982915291748e+11
1.549999999999999983e-07 4.741912000000000000e+06 6.906550760568917236e+11 3.321026721890326538e+11 4.997407000000000000e+06 1.946515371811945343e+10 3.415275397355869141e+11
1.575000000000000008e-07 4.740391000000000000e+06 6.901969216621888428e+11 3.259061024475228271e+11 4.997328000000000000e+06 1.946881184977165222e+10 3.354786571296466675e+11
1.600000000000000033e-07 4.738862000000000000e+06 6.897261864012789307e+11 3.201957629351630859e+11 4.997262000000000000e+06 1.947270958489793015e+10 3.299262183777698364e+11
1.625000000000000059e-07 4.737303000000000000e+06 6.892353542805422363e+11 3.150459139631439209e+11 4.997209000000000000e+06 1.947676025000360870e+10 3.249446983675117798e+11
1.650000000000000084e-07 4.735703000000000000e+06 6.887316733121826172e+11 3.105263352306229858e+11 4.997145000000000000e+06 1.948093218452938080e+10 3.206022971806654663e+11
1.675000000000000109e-07 4.734121000000000000e+06 6.882231496959301758e+11 3.067019987693811035e+11 4.997077000000000000e+06 1.948518691211603546e+10 3.169629008601878662e+11
1.700000000000000135e-07 4.732533000000000000e+06 6.876953992081933594e+11 3.036265710482132568e+11 4.997019000000000000e+06 1.948960402113095474e+10 3.140797046924759521e+11
1.725000000000000160e-07 4.730929000000000000e+06 6.871607903245158691e+11 3.013454022400069580e+11 4.996950000000000000e+06 1.949414185317713928e+10 3.119970704378731689e+11
1.749999999999999921e-07 4.729338000000000000e+06 6.866234733382382812e+11 2.998911561077462769e+11 4.996885000000000000e+06 1.949885555698564911e+10 3.107474454609271851e+11
1.774999999999999946e-07 4.727726000000000000e+06 6.860726823291022949e+11 2.993099271006318359e+11 4.996811000000000000e+06 1.950367823826527405e+10 3.103772648062758789e+11
1.799999999999999971e-07 4.726148000000000000e+06 6.855284433327683105e+11 2.996235103664946289e+11 4.996749000000000000e+06 1.950877730979695129e+10 3.109078308024525146e+11
1.824999999999999997e-07 4.724530000000000000e+06 6.849723582675727539e+11 3.008558514219312744e+11 4.996669000000000000e+06 1.951396058046396637e+10 3.123626864063896484e+11
1.850000000000000022e-07 4.722938000000000000e+06 6.844150515505897217e+11 3.030175749272037964e+11 4.996588000000000000e+06 1.951928656189730835e+10 3.147524712092071533e+11
1.875000000000000048e-07 4.721324000000000000e+06 6.838467523531351318e+11 3.061024808133717041e+11 4.996524000000000000e+06 1.952494198836276627e+10 3.180711874930992432e+11
1.900000000000000073e-07 4.719683000000000000e+06 6.832661271525499268e+11 3.100980009927094116e+11 4.996441000000000000e+06 1.953062089519817734e+10 3.223059157630587769e+11
1.925000000000000098e-07 4.718054000000000000e+06 6.826767018299743652e+11 3.149821412700103149e+11 4.996385000000000000e+06 1.953668999208991623e+10 3.274346379290870972e+11
1.950000000000000124e-07 4.716341000000000000e+06 6.820701356875948486e+11 3.207263927832946167e+11 4.996320000000000000e+06 1.954286677347419357e+10 3.334277889556225586e+11
1.975000000000000149e-07 4.714756000000000000e+06 6.814830713132390137e+11 3.272912406576824341e+11 4.996251000000000000e+06 1.954931139575888443e+10 3.402453331938753662e+11
1.999999999999999909e-07 4.713154000000000000e+06 6.809027039230443115e+11 3.346303238329938354e+11 4.996174000000000000e+06 1.955581291698712921e+10 3.478416573290571899e+11
2.024999999999999935e-07 4.711458000000000000e+06 6.802888555284095459e+11 3.427082463142600708e+11 4.996096000000000000e+06 1.956250458093496704e+10 3.561815072069429932e+11
2.049999999999999960e-07 4.709876000000000000e+06 6.796816810274755859e+11 3.514568614346610718e+11 4.996010000000000000e+06 1.956938450625936127e+10 3.651948642797496338e+11
2.074999999999999986e-07 4.708292000000000000e+06 6.790908464454715576e+11 3.608033940517476807e+11 4.995937000000000000e+06 1.957653565996047974e+10 3.748077191254513550e+11
2.100000000000000011e-07 4.706672000000000000e+06 6.784973176554907227e+11 3.706873007778922119e+11 4.995860000000000000e+06 1.958399066045324707e+10 3.849593704296985474e+11
2.125000000000000036e-07 4.705060000000000000e+06 6.778910875622161865e+11 3.810393533209730225e+11 4.995772000000000000e+06 1.959151137633811569e+10 3.955799881020039062e+11
2.150000000000000062e-07 4.703454000000000000e+06 6.772851818199969482e+11 3.917740625263357544e+11 4.995678000000000000e+06 1.959922435811442184e+10 4.065820960630412598e+11
2.175000000000000087e-07 4.701889000000000000e+06 6.766925920035565186e+11 4.028080069446241455e+11 4.995583000000000000e+06 1.960718485751562500e+10 4.178806048114278564e+11
2.200000000000000112e-07 4.700298000000000000e+06 6.761006482711257324e+11 4.140595441408782959e+11 4.995490000000000000e+06 1.961538878030577850e+10 4.293924765211688232e+11
2.225000000000000138e-07 4.698774000000000000e+06 6.755352794656202393e+11 4.254406164000842896e+11 4.995406000000000000e+06 1.962392921456840515e+10 4.410285791572778320e+11
2.250000000000000163e-07 4.697215000000000000e+06 6.749703969024320068e+11 4.368650215748256836e+11 4.995330000000000000e+06 1.963274420321266937e+10 4.527023662927682495e+11
2.274999999999999924e-07 4.695744000000000000e+06 6.744246814667917480e+11 4.482481947961060181e+11 4.995231000000000000e+06 1.964156094501802444e+10 4.643275614898283081e+11
2.299999999999999949e-07 4.694273000000000000e+06 6.739011374966428223e+11 4.594987890794924316e+11 4.995125000000000000e+06 1.965047222289987946e+10 4.758112281803366089e+11
2.324999999999999974e-07 4.692798000000000000e+06 6.733740699368107910e+11 4.705326941569028320e+11 4.995031000000000000e+06 1.965982945802800751e+10 4.870683364449003906e+11
2.350000000000000000e-07 4.691432000000000000e+06 6.728929218080484619e+11 4.812639573504707031e+11 4.994938000000000000e+06 1.966946809631581879e+10 4.980127288077248535e+11
2.375000000000000025e-07 4.690096000000000000e+06 6.724128400982370605e+11 4.916248178301641846e+11 4.994833000000000000e+06 1.967921686874628067e+10 5.085767999919172363e+11
2.400000000000000315e-07 4.688767000000000000e+06 6.719689247950727539e+11 5.015448197334681396e+11 4.994727000000000000e+06 1.968910685400923157e+10 5.186886516181887817e+11
2.425000000000000076e-07 4.687458000000000000e+06 6.715306759336683350e+11 5.109381163315375977e+11 4.994630000000000000e+06 1.969933160007249069e+10 5.282608989102523804e+11
2.449999999999999836e-07 4.686108000000000000e+06 6.711047612480698242e+11 5.197448333051016846e+11 4.994529000000000000e+06 1.970978058663293076e+10 5.372331432416400146e+11
2.475000000000000126e-07 4.684883000000000000e+06 6.707105876289362793e+11 5.278922899642601318e+11 4.994438000000000000e+06 1.972057496122324753e+10 5.455321515289890747e+11
2.499999999999999887e-07 4.683603000000000000e+06 6.703152455869178467e+11 5.353220394974293213e+11 4.994342000000000000e+06 1.973159620914444351e+10 5.530997400196610107e+11
2.525000000000000177e-07 4.682420000000000000e+06 6.699610151787957764e+11 5.419898835158357544e+11 4.994239000000000000e+06 1.974265924793095398e+10 5.598920001397478027e+11
2.549999999999999938e-07 4.681286000000000000e+06 6.696338539781682129e+11 5.478474055722595825e+11 4.994134000000000000e+06 1.975384692526376724e+10 5.658604221121678467e+11
2.575000000000000228e-07 4.680147000000000000e+06 6.693142241079045410e+11 5.528653753460485840e+11 4.994019000000000000e+06 1.976524998772023010e+10 5.709761394702255859e+11
2.599999999999999988e-07 4.679001000000000000e+06 6.690043743425614014e+11 5.570225949557985840e+11 4.993924000000000000e+06 1.977700578064221191e+10 5.752177190288146973e+11
2.625000000000000278e-07 4.677855000000000000e+06 6.687089675729025879e+11 5.602936960712713623e+11 4.993807000000000000e+06 1.978868627883983231e+10 5.785596308061806641e+11
2.650000000000000039e-07 4.676791000000000000e+06 6.684369283970588379e+11 5.626663474429829102e+11 4.993694000000000000e+06 1.980065059680760956e+10 5.809909706889522705e+11
2.674999999999999800e-07 4.675737000000000000e+06 6.681815979455816650e+11 5.641395994148072510e+11 4.993571000000000000e+06 1.981288774705907822e+10 5.825128305534819336e+11
2.700000000000000090e-07 4.674703000000000000e+06 6.679361065144606934e+11 5.647289739974887695e+11 4.993455000000000000e+06 1.982531983985426331e+10 5.831429142186765137e+11
2.724999999999999850e-07 4.673707000000000000e+06 6.677021186858813477e+11 5.644483582254620361e+11 4.993325000000000000e+06 1.983778391639971161e+10 5.828965378647677002e+11
2.750000000000000140e-07 4.672729000000000000e+06 6.674803054662413330e+11 5.633158386360457764e+11 4.993219000000000000e+06 1.985063517511377335e+10 5.817943756824283447e+11
2.774999999999999901e-07 4.671746000000000000e+06 6.672543044294423828e+11 5.613642886313609619e+11 4.993107000000000000e+06 1.986369482931256866e+10 5.798709049607008057e+11
2.800000000000000191e-07 4.670830000000000000e+06 6.670337949909633789e+11 5.586355144641263428e+11 4.992996000000000000e+06 1.987679682737960052e+10 5.771686309242745361e+11
