# time_tab [s], number_e [$\#$], Ek_e [eV], qV_e [eV], number_i [$\#$], Ek_i [eV], qV_i [eV]
0.000000000000000000e+00 4.999992000000000000e+06 7.496291960670927734e+11 -2.481579875570352554e+09 4.999992000000000000e+06 1.939735193138678741e+10 -2.032458512279845238e+09
2.500000000000000052e-09 4.991660000000000000e+06 7.478772458334493408e+11 -2.471744651401025295e+09 4.999963000000000000e+06 1.939654144635284424e+10 -2.032418627782685041e+09
5.000000000000000105e-09 4.983655000000000000e+06 7.461963505474543457e+11 -1.785346828637777090e+09 4.999939000000000000e+06 1.939655246857572937e+10 -1.355228354209374905e+09
7.500000000000000984e-09 4.975711000000000000e+06 7.445439747216835938e+11 9.471816969159044325e+06 4.999918000000000000e+06 1.939678877632875061e+10 4.283561871721189022e+08
1.000000000000000021e-08 4.968164000000000000e+06 7.429702951578801270e+11 2.934147633377895355e+09 4.999889000000000000e+06 1.939735560672866058e+10 3.344841146522709370e+09
1.249999999999999943e-08 4.960640000000000000e+06 7.414025099784792480e+11 6.847798414896864891e+09 4.999847000000000000e+06 1.939689220697840881e+10 7.257514230818192482e+09
1.500000000000000197e-08 4.953401000000000000e+06 7.398701974652584229e+11 1.147950090157502365e+10 4.999815000000000000e+06 1.939632214147441864e+10 1.189849814341788673e+10
1.750000000000000119e-08 4.946196000000000000e+06 7.383529914507960205e+11 1.682661132041674042e+10 4.999783000000000000e+06 1.939569274215412140e+10 1.726662352467581177e+10
2.000000000000000042e-08 4.939283000000000000e+06 7.368867997587127686e+11 2.277791352331545639e+10 4.999756000000000000e+06 1.939483479448820496e+10 2.325103573292604446e+10
2.249999999999999964e-08 4.932717000000000000e+06 7.354714539948999023e+11 2.929484302950509644e+10 4.999720000000000000e+06 1.939517669975074768e+10 2.981379920267121506e+10
2.499999999999999887e-08 4.926289000000000000e+06 7.340931245511854248e+11 3.628137847149935913e+10 4.999685000000000000e+06 1.939456485919221497e+10 3.685881774815910339e+10
2.750000000000000140e-08 4.920025000000000000e+06 7.327406728247937012e+11 4.372601877859671021e+10 4.999643000000000000e+06 1.939293001371706390e+10 4.437447224452911377e+10
3.000000000000000394e-08 4.914016000000000000e+06 7.314127313174052734e+11 5.146409056794752502e+10 4.999608000000000000e+06 1.939292922614237595e+10 5.219655438217198181e+10
3.249999999999999985e-08 4.908337000000000000e+06 7.301356599749256592e+11 5.949415027949529266e+10 4.999580000000000000e+06 1.939230768314639282e+10 6.032364186100320435e+10
3.500000000000000239e-08 4.902594000000000000e+06 7.288282953180183105e+11 6.774829366725064850e+10 4.999551000000000000e+06 1.939336760449075317e+10 6.868722310808029938e+10
3.749999999999999830e-08 4.897180000000000000e+06 7.275750175270048828e+11 7.614087294752510071e+10 4.999516000000000000e+06 1.939298090666394806e+10 7.720087374260339355e+10
4.000000000000000084e-08 4.891877000000000000e+06 7.263333691803426514e+11 8.459114184728172302e+10 4.999480000000000000e+06 1.939208926150766754e+10 8.578356613430316162e+10
4.250000000000000337e-08 4.886721000000000000e+06 7.251258049096750488e+11 9.306558051390768433e+10 4.999448000000000000e+06 1.939150738062223053e+10 9.440028500001899719e+10
4.499999999999999929e-08 4.881697000000000000e+06 7.239300972894342041e+11 1.016045852747737732e+11 4.999414000000000000e+06 1.939172945780104065e+10 1.030898266760191803e+11
4.750000000000000182e-08 4.876944000000000000e+06 7.227834689023270264e+11 1.101544386471672058e+11 4.999370000000000000e+06 1.939184095360488892e+10 1.117971740152161560e+11
4.999999999999999774e-08 4.872395000000000000e+06 7.216772098427470703e+11 1.186434196183364868e+11 4.999331000000000000e+06 1.939114570923870850e+10 1.204489319941157074e+11
5.250000000000000027e-08 4.867968000000000000e+06 7.206002085276402588e+11 1.270981544927652740e+11 4.999300000000000000e+06 1.939033177494737244e+10 1.290704913130967407e+11
5.500000000000000281e-08 4.863653000000000000e+06 7.195432658259190674e+11 1.353664932195837555e+11 4.999266000000000000e+06 1.938927220508795166e+10 1.375091242239759216e+11
5.749999999999999872e-08 4.859531000000000000e+06 7.185134750239835205e+11 1.434838168392846985e+11 4.999235000000000000e+06 1.938939716733839798e+10 1.458001517811883850e+11
6.000000000000000787e-08 4.855498000000000000e+06 7.175208985365832520e+11 1.514955490038272400e+11 4.999203000000000000e+06 1.939110651204399109e+10 1.539872539810462341e+11
6.249999999999999717e-08 4.851738000000000000e+06 7.165723236017358398e+11 1.592492871430774536e+11 4.999169000000000000e+06 1.939117943784893799e+10 1.619166909889621887e+11
6.499999999999999971e-08 4.847907000000000000e+06 7.156070062486459961e+11 1.667896482456444702e+11 4.999140000000000000e+06 1.939113989279481888e+10 1.696325908509949036e+11
6.750000000000000224e-08 4.844295000000000000e+06 7.146845916771269531e+11 1.743086037788368835e+11 4.999102000000000000e+06 1.939079136243127823e+10 1.773273406904884033e+11
7.000000000000000477e-08 4.840761000000000000e+06 7.137650221657713623e+11 1.816995464162101135e+11 4.999068000000000000e+06 1.939195270574650574e+10 1.848934853104500427e+11
7.250000000000000731e-08 4.837426000000000000e+06 7.128768773088598633e+11 1.888274837851945801e+11 4.999036000000000000e+06 1.939193265875709915e+10 1.921958033266327209e+11
7.499999999999999661e-08 4.834122000000000000e+06 7.120043045519294434e+11 1.955427683442616272e+11 4.998985000000000000e+06 1.939288748432519531e+10 1.990836669991744080e+11
7.749999999999999914e-08 4.830932000000000000e+06 7.111767319396076660e+11 2.021404618610282288e+11 4.998945000000000000e+06 1.939214981973265076e+10 2.058511403377772522e+11
8.000000000000000167e-08 4.827865000000000000e+06 7.103795523349080811e+11 2.087503902752483521e+11 4.998914000000000000e+06 1.939246761025432587e+10 2.126284469161393127e+11
8.250000000000000421e-08 4.824850000000000000e+06 7.095828957990550537e+11 2.150217137140176697e+11 4.998877000000000000e+06 1.939251416315722656e+10 2.190640457236685181e+11
8.500000000000000674e-08 4.821973000000000000e+06 7.088227166080357666e+11 2.211036355854017639e+11 4.998840000000000000e+06 1.939192963524523163e+10 2.253080676054907532e+11
8.749999999999999604e-08 4.819084000000000000e+06 7.080599538396254883e+11 2.270105690020226746e+11 4.998805000000000000e+06 1.939201918718434525e+10 2.313750684890907288e+11
8.999999999999999857e-08 4.816356000000000000e+06 7.073301376872216797e+11 2.328702852204704590e+11 4.998772000000000000e+06 1.939275752973453522e+10 2.373919536129678650e+11
9.250000000000000111e-08 4.813709000000000000e+06 7.066101879799550781e+11 2.385333487124600525e+11 4.998732000000000000e+06 1.939422297147450256e+10 2.432090067680981140e+11
9.500000000000000364e-08 4.811088000000000000e+06 7.058982144866801758e+11 2.439606441483394165e+11 4.998699000000000000e+06 1.939512270540464783e+10 2.487862172830081482e+11
9.750000000000000618e-08 4.808509000000000000e+06 7.052107580173463135e+11 2.491738917676257019e+11 4.998664000000000000e+06 1.939556588507309723e+10 2.541459792140251465e+11
9.999999999999999547e-08 4.806104000000000000e+06 7.045640689809315186e+11 2.540632286284813538e+11 4.998618000000000000e+06 1.939618943516663361e+10 2.591787932654817505e+11
1.024999999999999980e-07 4.803789000000000000e+06 7.039196325518299561e+11 2.586866883092811279e+11 4.998576000000000000e+06 1.939673163194817734e+10 2.639426604502981873e+11
1.050000000000000005e-07 4.801409000000000000e+06 7.032888156845710449e+11 2.630763520675381775e+11 4.998538000000000000e+06 1.939829890195289612e+10 2.684696797180929260e+11
1.075000000000000031e-07 4.799152000000000000e+06 7.026613762776999512e+11 2.671578772928448792e+11 4.998499000000000000e+06 1.939827972097329330e+10 2.726856179314526672e+11
1.100000000000000056e-07 4.796928000000000000e+06 7.020579264994257812e+11 2.710076056505569153e+11 4.998454000000000000e+06 1.939740841949900818e+10 2.766670494265656738e+11
1.125000000000000081e-07 4.794781000000000000e+06 7.014661530979913330e+11 2.747191527445154114e+11 4.998403000000000000e+06 1.939860244651490021e+10 2.805090281829371948e+11
1.149999999999999974e-07 4.792681000000000000e+06 7.008850025420898438e+11 2.782958607130402832e+11 4.998368000000000000e+06 1.939879063559418488e+10 2.842146354612451172e+11
1.175000000000000000e-07 4.790688000000000000e+06 7.003224019610737305e+11 2.816610308566271362e+11 4.998334000000000000e+06 1.939972802789426422e+10 2.877063325051109009e+11
1.200000000000000157e-07 4.788677000000000000e+06 6.997603781993311768e+11 2.849183451459496460e+11 4.998289000000000000e+06 1.940117632570000839e+10 2.910875537277600708e+11
1.224999999999999918e-07 4.786731000000000000e+06 6.992244076423704834e+11 2.878707627069934692e+11 4.998232000000000000e+06 1.940248310200107574e+10 2.941618779888577271e+11
1.249999999999999943e-07 4.784845000000000000e+06 6.986843474186933594e+11 2.908288064230541992e+11 4.998188000000000000e+06 1.940255941611233521e+10 2.972425711169619751e+11
1.274999999999999969e-07 4.783008000000000000e+06 6.981574619768848877e+11 2.937143750244232178e+11 4.998135000000000000e+06 1.940356976440135574e+10 3.002512049468748779e+11
1.299999999999999994e-07 4.781121000000000000e+06 6.976187810732561035e+11 2.965682328478228149e+11 4.998085000000000000e+06 1.940413674946917725e+10 3.032271564057462769e+11
1.325000000000000019e-07 4.779352000000000000e+06 6.971150662685372314e+11 2.992137621010241699e+11 4.998030000000000000e+06 1.940417273432147217e+10 3.059939977303831787e+11
1.350000000000000045e-07 4.777561000000000000e+06 6.965957410530502930e+11 3.018143875112915039e+11 4.997992000000000000e+06 1.940575011125415039e+10 3.087151073170498047e+11
1.375000000000000070e-07 4.775818000000000000e+06 6.960929624838354492e+11 3.044767663067491455e+11 4.997936000000000000e+06 1.940735107772259903e+10 3.114973059074160156e+11
1.400000000000000095e-07 4.774104000000000000e+06 6.955922253700540771e+11 3.070375646606477051e+11 4.997897000000000000e+06 1.940832797550510788e+10 3.141780506962178345e+11
1.425000000000000121e-07 4.772352000000000000e+06 6.950911736325261230e+11 3.095338484915705566e+11 4.997850000000000000e+06 1.940976147609710693e+10 3.167944658947727661e+11
1.450000000000000146e-07 4.770682000000000000e+06 6.945962027678504639e+11 3.118342487270059814e+11 4.997803000000000000e+06 1.941164400861859131e+10 3.192134559518637695e+11
1.474999999999999907e-07 4.769018000000000000e+06 6.941111610843341064e+11 3.140141106301467285e+11 4.997748000000000000e+06 1.941308662678383636e+10 3.215098762022206421e+11
1.499999999999999932e-07 4.767401000000000000e+06 6.936302147533122559e+11 3.160996390382883911e+11 4.997703000000000000e+06 1.941631227940358353e+10 3.237102609977540283e+11
1.524999999999999957e-07 4.765852000000000000e+06 6.931653877072729492e+11 3.182068947963797607e+11 4.997645000000000000e+06 1.941704956362281799e+10 3.259317792912390747e+11
1.549999999999999983e-07 4.764307000000000000e+06 6.927014635452199707e+11 3.203180067508873291e+11 4.997584000000000000e+06 1.942032064799586868e+10 3.281563292905999146e+11
1.575000000000000008e-07 4.762802000000000000e+06 6.922398835081889648e+11 3.223497401882314453e+11 4.997528000000000000e+06 1.942209716923653412e+10 3.303000515817383423e+11
1.600000000000000033e-07 4.761325000000000000e+06 6.917911885172534180e+11 3.242083215331408081e+11 4.997487000000000000e+06 1.942524602247795105e+10 3.322693588167056274e+11
1.625000000000000059e-07 4.759844000000000000e+06 6.913483628451130371e+11 3.259935718266823120e+11 4.997423000000000000e+06 1.942761011496872711e+10 3.341653862354317627e+11
1.650000000000000084e-07 4.758398000000000000e+06 6.909143629453701172e+11 3.278051323294735718e+11 4.997370000000000000e+06 1.943044954383521652e+10 3.360872314888119507e+11
1.675000000000000109e-07 4.757055000000000000e+06 6.904904942970192871e+11 3.295704930002030029e+11 4.997329000000000000e+06 1.943331382313850403e+10 3.379614248203648071e+11
1.700000000000000135e-07 4.755667000000000000e+06 6.900599651823046875e+11 3.312924083044980469e+11 4.997284000000000000e+06 1.943529766311805344e+10 3.397912045892453003e+11
1.725000000000000160e-07 4.754319000000000000e+06 6.896372323764160156e+11 3.330766438969794922e+11 4.997232000000000000e+06 1.943638504103947067e+10 3.416837986574123535e+11
1.749999999999999921e-07 4.752940000000000000e+06 6.892045371506154785e+11 3.347242280264990234e+11 4.997184000000000000e+06 1.943894234410050201e+10 3.434387973038648071e+11
1.774999999999999946e-07 4.751623000000000000e+06 6.887949848220606689e+11 3.361788808502677002e+11 4.997115000000000000e+06 1.943958357180802536e+10 3.449985980235383911e+11
1.799999999999999971e-07 4.750325000000000000e+06 6.883875775190578613e+11 3.375736796303520508e+11 4.997066000000000000e+06 1.944259310931416321e+10 3.464972948559391479e+11
1.824999999999999997e-07 4.749014000000000000e+06 6.879835192508864746e+11 3.388894950451456909e+11 4.996997000000000000e+06 1.944472994692722702e+10 3.479164966161350098e+11
1.850000000000000022e-07 4.747781000000000000e+06 6.875913135809797363e+11 3.402564152151185913e+11 4.996947000000000000e+06 1.944827877764297485e+10 3.493856986436098633e+11
1.875000000000000048e-07 4.746490000000000000e+06 6.871829716058084717e+11 3.415369256988223877e+11 4.996910000000000000e+06 1.945251553190780640e+10 3.507665172775376587e+11
1.900000000000000073e-07 4.745328000000000000e+06 6.868007953264638672e+11 3.429748718010650635e+11 4.996863000000000000e+06 1.945616292881222534e+10 3.523037730035174561e+11
1.925000000000000098e-07 4.744056000000000000e+06 6.863991431771557617e+11 3.443643670576209717e+11 4.996805000000000000e+06 1.945922382432316589e+10 3.537920545892738037e+11
1.950000000000000124e-07 4.742868000000000000e+06 6.860205371631552734e+11 3.458864466200541992e+11 4.996733000000000000e+06 1.946212788476478958e+10 3.554118608338116455e+11
1.975000000000000149e-07 4.741722000000000000e+06 6.856470277982293701e+11 3.475958112505993652e+11 4.996678000000000000e+06 1.946686611297784424e+10 3.572185167460684204e+11
1.999999999999999909e-07 4.740567000000000000e+06 6.852775397881401367e+11 3.492748936012319946e+11 4.996610000000000000e+06 1.947223883894046402e+10 3.589940205499424438e+11
2.024999999999999935e-07 4.739437000000000000e+06 6.849103822371702881e+11 3.508928796871947632e+11 4.996532000000000000e+06 1.947445857720059967e+10 3.607067597354913940e+11
2.049999999999999960e-07 4.738304000000000000e+06 6.845502965333463135e+11 3.524875358617861938e+11 4.996460000000000000e+06 1.947723541310185242e+10 3.623961074650718994e+11
2.074999999999999986e-07 4.737204000000000000e+06 6.841893735999910889e+11 3.541653597417046509e+11 4.996397000000000000e+06 1.947978826954460907e+10 3.641695460115032349e+11
2.100000000000000011e-07 4.736130000000000000e+06 6.838228874247272949e+11 3.558727340845723877e+11 4.996343000000000000e+06 1.948395316979106903e+10 3.659734581147030640e+11
2.125000000000000036e-07 4.735029000000000000e+06 6.834566746130717773e+11 3.576177018200788574e+11 4.996275000000000000e+06 1.948775251262503815e+10 3.678153807161693726e+11
2.150000000000000062e-07 4.733982000000000000e+06 6.831004707888352051e+11 3.594560681771102905e+11 4.996210000000000000e+06 1.949177243003292465e+10 3.697501342500337524e+11
2.175000000000000087e-07 4.732890000000000000e+06 6.827361120111447754e+11 3.612935640321626587e+11 4.996138000000000000e+06 1.949422426921525955e+10 3.716844567767206421e+11
2.200000000000000112e-07 4.731842000000000000e+06 6.823775014479963379e+11 3.630955723572195435e+11 4.996075000000000000e+06 1.949866510076000214e+10 3.735828608858284302e+11
2.225000000000000138e-07 4.730791000000000000e+06 6.820179766016645508e+11 3.647739192278817139e+11 4.996005000000000000e+06 1.950396673843260193e+10 3.753563689741613159e+11
2.250000000000000163e-07 4.729769000000000000e+06 6.816633692913564453e+11 3.665264428304544678e+11 4.995935000000000000e+06 1.950885575657979965e+10 3.772044579271327515e+11
2.274999999999999924e-07 4.728732000000000000e+06 6.813038117176704102e+11 3.684329289198883667e+11 4.995859000000000000e+06 1.951362082554798126e+10 3.792071553843040161e+11
2.299999999999999949e-07 4.727739000000000000e+06 6.809511693671306152e+11 3.703942683725573120e+11 4.995792000000000000e+06 1.951694723434685898e+10 3.812635468047957153e+11
2.324999999999999974e-07 4.726714000000000000e+06 6.806073259486739502e+11 3.723839002928903809e+11 4.995730000000000000e+06 1.952062941867762375e+10 3.833464277960211182e+11
2.350000000000000000e-07 4.725726000000000000e+06 6.802589762805196533e+11 3.744047607523035278e+11 4.995648000000000000e+06 1.952478969166650391e+10 3.854592060417274780e+11
2.375000000000000025e-07 4.724686000000000000e+06 6.799116936792775879e+11 3.764644028356907349e+11 4.995589000000000000e+06 1.953061628203563690e+10 3.876091191481265259e+11
2.400000000000000315e-07 4.723747000000000000e+06 6.795894468950827637e+11 3.785148967833493652e+11 4.995531000000000000e+06 1.953476268630013275e+10 3.897480274415163574e+11
2.425000000000000076e-07 4.722820000000000000e+06 6.792608229752686768e+11 3.804081044871965332e+11 4.995470000000000000e+06 1.953942783944612503e+10 3.917285918958139648e+11
2.449999999999999836e-07 4.721884000000000000e+06 6.789287890047990723e+11 3.823487796011815186e+11 4.995418000000000000e+06 1.954437746726667404e+10 3.937564327898978271e+11
2.475000000000000126e-07 4.720978000000000000e+06 6.786037423417089844e+11 3.841322213514303589e+11 4.995347000000000000e+06 1.954954945453889847e+10 3.956274676462025146e+11
2.499999999999999887e-07 4.720060000000000000e+06 6.782805156357680664e+11 3.858413508516866455e+11 4.995270000000000000e+06 1.955423538239373779e+10 3.974244911266025391e+11
2.525000000000000177e-07 4.719142000000000000e+06 6.779506155586130371e+11 3.875424411654003906e+11 4.995193000000000000e+06 1.955935686723340225e+10 3.992134910145759277e+11
2.549999999999999938e-07 4.718225000000000000e+06 6.776188343618751221e+11 3.891259533226549683e+11 4.995109000000000000e+06 1.956409590841851044e+10 4.008837588698787231e+11
2.575000000000000228e-07 4.717279000000000000e+06 6.772910992147951660e+11 3.906509660384152832e+11 4.995029000000000000e+06 1.956912302332421112e+10 4.024937394097817993e+11
2.599999999999999988e-07 4.716407000000000000e+06 6.769777621883333740e+11 3.919888823687576294e+11 4.994959000000000000e+06 1.957320092406936646e+10 4.039159512572000122e+11
2.625000000000000278e-07 4.715525000000000000e+06 6.766615506352932129e+11 3.933885143647826538e+11 4.994869000000000000e+06 1.957812758316880798e+10 4.053986035710817871e+11
2.650000000000000039e-07 4.714645000000000000e+06 6.763585901139324951e+11 3.949431003326712036e+11 4.994793000000000000e+06 1.958439097455081558e+10 4.070341182041932983e+11
2.674999999999999800e-07 4.713831000000000000e+06 6.760680721973021240e+11 3.965342130817687988e+11 4.994700000000000000e+06 1.958883668468247223e+10 4.087051601077445068e+11
2.700000000000000090e-07 4.712963000000000000e+06 6.757529210299653320e+11 3.980997247122391357e+11 4.994626000000000000e+06 1.959491545426359558e+10 4.103510080342172852e+11
2.724999999999999850e-07 4.712155000000000000e+06 6.754614139331748047e+11 3.995778483042569580e+11 4.994539000000000000e+06 1.960114635207628632e+10 4.119100849990543823e+11
2.750000000000000140e-07 4.711333000000000000e+06 6.751640306618457031e+11 4.010153012038067017e+11 4.994464000000000000e+06 1.960595263894515228e+10 4.134281550730097656e+11
2.774999999999999901e-07 4.710511000000000000e+06 6.748554418150937500e+11 4.024286955284920044e+11 4.994383000000000000e+06 1.961287894625870895e+10 4.149216678961887207e+11
2.800000000000000191e-07 4.709686000000000000e+06 6.745528600110358887e+11 4.038870494770844727e+11 4.994317000000000000e+06 1.961923617888523865e+10 4.164591358631255493e+11
