# time_tab [s], number_e [#], Ek_e [eV], qV_e [eV], number_i [#], Ek_i [eV], qV_i [eV]
0.000000000000000000e+00 4.999998000000000000e+06 7.498777624843902588e+11 -1.889270447378127289e+10 4.999998000000000000e+06 1.939820835262771606e+10 -1.841555506938985062e+10
2.500000000000000052e-09 4.991539000000000000e+06 7.482205167576115723e+11 -1.888325967850915909e+10 4.999966000000000000e+06 1.939825418594903564e+10 -1.841554657543002319e+10
5.000000000000000105e-09 4.983302000000000000e+06 7.465652561501300049e+11 -1.812767381843213654e+10 4.999934000000000000e+06 1.939798928538463593e+10 -1.766939101295417023e+10
7.500000000000000984e-09 4.974906000000000000e+06 7.449098796210097656e+11 -1.592146009000352859e+10 4.999910000000000000e+06 1.939772773180207062e+10 -1.547544933565799713e+10
1.000000000000000021e-08 4.966694000000000000e+06 7.432581426592585449e+11 -1.232887354019829369e+10 4.999876000000000000e+06 1.939746034390718842e+10 -1.189234115346585464e+10
1.249999999999999943e-08 4.958474000000000000e+06 7.416139754278315430e+11 -7.431313316862577438e+09 4.999844000000000000e+06 1.939754472622518539e+10 -6.996553914655998230e+09
1.500000000000000197e-08 4.950542000000000000e+06 7.400116945719912109e+11 -1.259875175297554493e+09 4.999815000000000000e+06 1.939749128833174515e+10 -8.145250665302520990e+08
1.750000000000000119e-08 4.942505000000000000e+06 7.383828978487109375e+11 6.111908999568657875e+09 4.999789000000000000e+06 1.939745701548976898e+10 6.583914544897508621e+09
2.000000000000000042e-08 4.934819000000000000e+06 7.367809315476748047e+11 1.461646392691341972e+10 4.999758000000000000e+06 1.939731817863216400e+10 1.513431987736518478e+10
2.249999999999999964e-08 4.927257000000000000e+06 7.352045421339566650e+11 2.423197133075164032e+10 4.999725000000000000e+06 1.939704710317015076e+10 2.481797930343068695e+10
2.499999999999999887e-08 4.919935000000000000e+06 7.336239751776911621e+11 3.489635068674758148e+10 4.999690000000000000e+06 1.939681676280182648e+10 3.557475014213582611e+10
2.750000000000000140e-08 4.912644000000000000e+06 7.320516741614445801e+11 4.649140394445855713e+10 4.999650000000000000e+06 1.939699229061638641e+10 4.728779076410646057e+10
3.000000000000000394e-08 4.905541000000000000e+06 7.304814742113347168e+11 5.891187236366705322e+10 4.999618000000000000e+06 1.939643996852994537e+10 5.985261679545682526e+10
3.249999999999999985e-08 4.898760000000000000e+06 7.289681412584133301e+11 7.213192740398707581e+10 4.999588000000000000e+06 1.939615544714451599e+10 7.324402404724426270e+10
3.500000000000000239e-08 4.892079000000000000e+06 7.274360156197397461e+11 8.603829924008045959e+10 4.999559000000000000e+06 1.939613143800529099e+10 8.734829499601322937e+10
3.749999999999999830e-08 4.885543000000000000e+06 7.259320534392873535e+11 1.005065629254339905e+11 4.999517000000000000e+06 1.939579531781118774e+10 1.020393350561579895e+11
4.000000000000000084e-08 4.879245000000000000e+06 7.244350499702801514e+11 1.154723843718732300e+11 4.999478000000000000e+06 1.939558995726691437e+10 1.172518795755387726e+11
4.250000000000000337e-08 4.873147000000000000e+06 7.229658304390655518e+11 1.309008612877069092e+11 4.999443000000000000e+06 1.939568951174420929e+10 1.329500960441481323e+11
4.499999999999999929e-08 4.867372000000000000e+06 7.215485193459291992e+11 1.466380486558526001e+11 4.999404000000000000e+06 1.939600423643489075e+10 1.489774225992187500e+11
4.750000000000000182e-08 4.861896000000000000e+06 7.201665996274064941e+11 1.626537613126132507e+11 4.999366000000000000e+06 1.939635276807413483e+10 1.653012069949784546e+11
4.999999999999999774e-08 4.856420000000000000e+06 7.187902308937792969e+11 1.788071578675142517e+11 4.999324000000000000e+06 1.939651869026596451e+10 1.817779716786642761e+11
5.250000000000000027e-08 4.851160000000000000e+06 7.174453392606093750e+11 1.950197251910354004e+11 4.999275000000000000e+06 1.939624799243576431e+10 1.983258960457849731e+11
5.500000000000000281e-08 4.846253000000000000e+06 7.161563961677128906e+11 2.111066640770427856e+11 4.999233000000000000e+06 1.939692991353745270e+10 2.147575971688842773e+11
5.749999999999999872e-08 4.841495000000000000e+06 7.148821833369519043e+11 2.271347992473208313e+11 4.999196000000000000e+06 1.939705656104912949e+10 2.311372687092922974e+11
6.000000000000000787e-08 4.836847000000000000e+06 7.136266699100656738e+11 2.429283717327168274e+11 4.999156000000000000e+06 1.939698312693970108e+10 2.472847846951013489e+11
6.249999999999999717e-08 4.832376000000000000e+06 7.124038812030633545e+11 2.583663970126620483e+11 4.999134000000000000e+06 1.939750195374113846e+10 2.630750093615850525e+11
6.499999999999999971e-08 4.828146000000000000e+06 7.112477987325141602e+11 2.733895734934064636e+11 4.999094000000000000e+06 1.939792626169313049e+10 2.784447021883795776e+11
6.750000000000000224e-08 4.824053000000000000e+06 7.101338489521730957e+11 2.878817264864543457e+11 4.999061000000000000e+06 1.939848040909307480e+10 2.932738778305794678e+11
7.000000000000000477e-08 4.820094000000000000e+06 7.090644621687108154e+11 3.017275075342966919e+11 4.999030000000000000e+06 1.939909450224908066e+10 3.074442911826463623e+11
7.250000000000000731e-08 4.816222000000000000e+06 7.080180300486962891e+11 3.149296413691978760e+11 4.998988000000000000e+06 1.939932112147820282e+10 3.209564809745394897e+11
7.499999999999999661e-08 4.812627000000000000e+06 7.070434880693231201e+11 3.273889584377014771e+11 4.998940000000000000e+06 1.940017946448431015e+10 3.337090853292599487e+11
7.749999999999999914e-08 4.809250000000000000e+06 7.061433300831247559e+11 3.390667261969120483e+11 4.998900000000000000e+06 1.940122388039623642e+10 3.456613047594058228e+11
8.000000000000000167e-08 4.805923000000000000e+06 7.052637119270722656e+11 3.498843738019583740e+11 4.998854000000000000e+06 1.940175728670734787e+10 3.567327543058437500e+11
8.250000000000000421e-08 4.802787000000000000e+06 7.044430615465590820e+11 3.598210862102332764e+11 4.998809000000000000e+06 1.940304652049378204e+10 3.669006946652211304e+11
8.500000000000000674e-08 4.799729000000000000e+06 7.036654692665810547e+11 3.688600577081929932e+11 4.998771000000000000e+06 1.940446564861035919e+10 3.761475248889081421e+11
8.749999999999999604e-08 4.796857000000000000e+06 7.029462823612687988e+11 3.769206041218070068e+11 4.998742000000000000e+06 1.940578862962157822e+10 3.843929010459006348e+11
8.999999999999999857e-08 4.794029000000000000e+06 7.022581168045275879e+11 3.839437440842504883e+11 4.998717000000000000e+06 1.940777779510253143e+10 3.915780196456873779e+11
9.250000000000000111e-08 4.791288000000000000e+06 7.016197502253356934e+11 3.899532969045858765e+11 4.998681000000000000e+06 1.940940218777550888e+10 3.977275247298905640e+11
9.500000000000000364e-08 4.788648000000000000e+06 7.010169360473951416e+11 3.949422202646973267e+11 4.998635000000000000e+06 1.941074527620759201e+10 4.028349738177872925e+11
9.750000000000000618e-08 4.786144000000000000e+06 7.004522758529719238e+11 3.989019511321704712e+11 4.998593000000000000e+06 1.941292877129133987e+10 4.068923841402937622e+11
9.999999999999999547e-08 4.783757000000000000e+06 6.999306821402309570e+11 4.018584863607721558e+11 4.998558000000000000e+06 1.941465863092942810e+10 4.099274520567493286e+11
1.024999999999999980e-07 4.781418000000000000e+06 6.994274142785388184e+11 4.038627671435459595e+11 4.998517000000000000e+06 1.941617777983594131e+10 4.119945752326885376e+11
1.050000000000000005e-07 4.779113000000000000e+06 6.989487963183264160e+11 4.049019748296188354e+11 4.998483000000000000e+06 1.941798809934871292e+10 4.130831354460112915e+11
1.075000000000000031e-07 4.776866000000000000e+06 6.984837470526883545e+11 4.050372880530515137e+11 4.998432000000000000e+06 1.942004328967641449e+10 4.132559614141165161e+11
1.100000000000000056e-07 4.774781000000000000e+06 6.980652080812196045e+11 4.042807974177994385e+11 4.998389000000000000e+06 1.942208466898450470e+10 4.125275881852130127e+11
1.125000000000000081e-07 4.772792000000000000e+06 6.976618146822592773e+11 4.027409544920164185e+11 4.998335000000000000e+06 1.942393637122027588e+10 4.110090140109404297e+11
1.149999999999999974e-07 4.770844000000000000e+06 6.972776787425241699e+11 4.004756261591953125e+11 4.998292000000000000e+06 1.942631214530271149e+10 4.087612119672762451e+11
1.175000000000000000e-07 4.768894000000000000e+06 6.968934479836375732e+11 3.975446479680827637e+11 4.998238000000000000e+06 1.942832608088841629e+10 4.058467493051277466e+11
1.200000000000000157e-07 4.767038000000000000e+06 6.965151008104521484e+11 3.939557489383927612e+11 4.998196000000000000e+06 1.943075969643231964e+10 4.022744436351970825e+11
1.224999999999999918e-07 4.765159000000000000e+06 6.961352190913593750e+11 3.897973666081326294e+11 4.998135000000000000e+06 1.943319537277305603e+10 3.981342560019038086e+11
1.249999999999999943e-07 4.763392000000000000e+06 6.957630361992072754e+11 3.851530412558257446e+11 4.998064000000000000e+06 1.943566179729965973e+10 3.935109552455866089e+11
1.274999999999999969e-07 4.761617000000000000e+06 6.953825137625605469e+11 3.800718647541206055e+11 4.998010000000000000e+06 1.943806198734435654e+10 3.884554274394845581e+11
1.299999999999999994e-07 4.759825000000000000e+06 6.949969477477106934e+11 3.746191231859328003e+11 4.997955000000000000e+06 1.944087904748591614e+10 3.830351410432819824e+11
1.325000000000000019e-07 4.758129000000000000e+06 6.946231426082182617e+11 3.689427297646013184e+11 4.997908000000000000e+06 1.944349275854555130e+10 3.773990291039479980e+11
1.350000000000000045e-07 4.756457000000000000e+06 6.942498753360734863e+11 3.631205583460725098e+11 4.997871000000000000e+06 1.944617274215630722e+10 3.716254536131004639e+11
1.375000000000000070e-07 4.754773000000000000e+06 6.938638005420939941e+11 3.572146556754798584e+11 4.997807000000000000e+06 1.944962063621113586e+10 3.657764848514464111e+11
1.400000000000000095e-07 4.753097000000000000e+06 6.934697231366081543e+11 3.513227756731956787e+11 4.997750000000000000e+06 1.945245470322018433e+10 3.599498370658510132e+11
1.425000000000000121e-07 4.751424000000000000e+06 6.930623836234235840e+11 3.455608681488457031e+11 4.997693000000000000e+06 1.945520330277005005e+10 3.542620943819961548e+11
1.450000000000000146e-07 4.749865000000000000e+06 6.926672965012746582e+11 3.399936653241218262e+11 4.997639000000000000e+06 1.945833279822785568e+10 3.487781356393317871e+11
1.474999999999999907e-07 4.748283000000000000e+06 6.922661543187473145e+11 3.346497587527136230e+11 4.997588000000000000e+06 1.946188007093436050e+10 3.435265996601802979e+11
1.499999999999999932e-07 4.746731000000000000e+06 6.918439042447973633e+11 3.296412665675516968e+11 4.997513000000000000e+06 1.946514663226898193e+10 3.386199549649888916e+11
1.524999999999999957e-07 4.745175000000000000e+06 6.914185642813845215e+11 3.250000343693693237e+11 4.997450000000000000e+06 1.946837953530402374e+10 3.340895793907865601e+11
1.549999999999999983e-07 4.743565000000000000e+06 6.909758936412189941e+11 3.208337699972706909e+11 4.997392000000000000e+06 1.947159225769969559e+10 3.300425500962940674e+11
1.575000000000000008e-07 4.742059000000000000e+06 6.905340499642666016e+11 3.172220146283269653e+11 4.997316000000000000e+06 1.947502276657549286e+10 3.265586238555031128e+11
1.600000000000000033e-07 4.740501000000000000e+06 6.900813910261152344e+11 3.141800761448538818e+11 4.997263000000000000e+06 1.947920423260196686e+10 3.236540130755671387e+11
1.625000000000000059e-07 4.738943000000000000e+06 6.896192093610490723e+11 3.117959389118005371e+11 4.997199000000000000e+06 1.948305426355185699e+10 3.214162066442163086e+11
1.650000000000000084e-07 4.737460000000000000e+06 6.891565884768364258e+11 3.100683625518805542e+11 4.997137000000000000e+06 1.948731165525501251e+10 3.198431413222661133e+11
1.675000000000000109e-07 4.735936000000000000e+06 6.886744538951816406e+11 3.090163238450380249e+11 4.997072000000000000e+06 1.949109838853508377e+10 3.189525654135233765e+11
1.700000000000000135e-07 4.734373000000000000e+06 6.881816055522873535e+11 3.086629227100454102e+11 4.997023000000000000e+06 1.949543339378109741e+10 3.187668509510714722e+11
1.725000000000000160e-07 4.732857000000000000e+06 6.876940312821198730e+11 3.090210892048576050e+11 4.996945000000000000e+06 1.949966087664122772e+10 3.192983820340270386e+11
1.749999999999999921e-07 4.731306000000000000e+06 6.871979143289572754e+11 3.101222406591253052e+11 4.996884000000000000e+06 1.950387504807116699e+10 3.205786128705759277e+11
1.774999999999999946e-07 4.729785000000000000e+06 6.866953061535361328e+11 3.119478508772171021e+11 4.996819000000000000e+06 1.950862543523434067e+10 3.225890741767783813e+11
1.799999999999999971e-07 4.728308000000000000e+06 6.862061213956437988e+11 3.144649019292549438e+11 4.996755000000000000e+06 1.951347197104439926e+10 3.252964543515195923e+11
1.824999999999999997e-07 4.726760000000000000e+06 6.856827216596721191e+11 3.177470749252129517e+11 4.996675000000000000e+06 1.951797832353148270e+10 3.287737845417895508e+11
1.850000000000000022e-07 4.725217000000000000e+06 6.851705354152609863e+11 3.217494057408255615e+11 4.996602000000000000e+06 1.952302652972824097e+10 3.329749256224009399e+11
1.875000000000000048e-07 4.723678000000000000e+06 6.846501412630562744e+11 3.264028581537103882e+11 4.996531000000000000e+06 1.952845573527270126e+10 3.378308521884185791e+11
1.900000000000000073e-07 4.722054000000000000e+06 6.841154502770344238e+11 3.316739615010543823e+11 4.996440000000000000e+06 1.953389669153037262e+10 3.433078000413425903e+11
1.925000000000000098e-07 4.720558000000000000e+06 6.835893586247719727e+11 3.375253675566372681e+11 4.996370000000000000e+06 1.953973386583451462e+10 3.493679045967424927e+11
1.950000000000000124e-07 4.719020000000000000e+06 6.830661586345710449e+11 3.439402875839943237e+11 4.996285000000000000e+06 1.954529816475057220e+10 3.559945559288882446e+11
1.975000000000000149e-07 4.717509000000000000e+06 6.825397880000056152e+11 3.508382109172344360e+11 4.996215000000000000e+06 1.955107712325651932e+10 3.631068030766556396e+11
1.999999999999999909e-07 4.716034000000000000e+06 6.820224953764271240e+11 3.581575230700656738e+11 4.996144000000000000e+06 1.955694321988593292e+10 3.706429170168275757e+11
2.024999999999999935e-07 4.714535000000000000e+06 6.814940726535307617e+11 3.658791330528073730e+11 4.996066000000000000e+06 1.956285717308305740e+10 3.785831084447830200e+11
2.049999999999999960e-07 4.713015000000000000e+06 6.809661800717656250e+11 3.739341029718275146e+11 4.995990000000000000e+06 1.956934958590641022e+10 3.868564144998930664e+11
2.074999999999999986e-07 4.711565000000000000e+06 6.804591335552878418e+11 3.822215751310924683e+11 4.995902000000000000e+06 1.957622600441291046e+10 3.953620816104451294e+11
2.100000000000000011e-07 4.710013000000000000e+06 6.799223218563210449e+11 3.907013290030183105e+11 4.995818000000000000e+06 1.958327848566246796e+10 4.040596558625070190e+11
2.125000000000000036e-07 4.708605000000000000e+06 6.794179749842919922e+11 3.993209329277994385e+11 4.995731000000000000e+06 1.959026684765501404e+10 4.128957476741868896e+11
2.150000000000000062e-07 4.707208000000000000e+06 6.789138105182580566e+11 4.080121341664724121e+11 4.995641000000000000e+06 1.959718450118224335e+10 4.218023712846364136e+11
2.175000000000000087e-07 4.705770000000000000e+06 6.784094147289881592e+11 4.167357235698776245e+11 4.995557000000000000e+06 1.960430584154284668e+10 4.307397312194498291e+11
2.200000000000000112e-07 4.704343000000000000e+06 6.779101937819177246e+11 4.253876551312171631e+11 4.995456000000000000e+06 1.961170417500396729e+10 4.396025679239439087e+11
2.225000000000000138e-07 4.702945000000000000e+06 6.774245321909851074e+11 4.339550788595093384e+11 4.995393000000000000e+06 1.961976698771410751e+10 4.483778067784553223e+11
2.250000000000000163e-07 4.701554000000000000e+06 6.769351276044366455e+11 4.423331229960114746e+11 4.995314000000000000e+06 1.962782173865521240e+10 4.569596045307844238e+11
2.274999999999999924e-07 4.700130000000000000e+06 6.764516808046115723e+11 4.504987428832312012e+11 4.995241000000000000e+06 1.963595145867247009e+10 4.653231714907887573e+11
2.299999999999999949e-07 4.698764000000000000e+06 6.759757866901701660e+11 4.583833005432363892e+11 4.995155000000000000e+06 1.964442739052259064e+10 4.733983095022474365e+11
2.324999999999999974e-07 4.697404000000000000e+06 6.755206482855972900e+11 4.658993606211962891e+11 4.995068000000000000e+06 1.965318795987857819e+10 4.810982485787600098e+11
2.350000000000000000e-07 4.696124000000000000e+06 6.750893600257305908e+11 4.730331911266954346e+11 4.994978000000000000e+06 1.966196598510256195e+10 4.884090169013118286e+11
2.375000000000000025e-07 4.694871000000000000e+06 6.746646124521295166e+11 4.797401425566984253e+11 4.994877000000000000e+06 1.967104852437871933e+10 4.952847769145772705e+11
2.400000000000000315e-07 4.693621000000000000e+06 6.742471486387346191e+11 4.859226946070319214e+11 4.994788000000000000e+06 1.968003947400024033e+10 5.016274065548749390e+11
2.425000000000000076e-07 4.692413000000000000e+06 6.738503275098208008e+11 4.915762587140081177e+11 4.994708000000000000e+06 1.968941114760270309e+10 5.074313298379976196e+11
2.449999999999999836e-07 4.691225000000000000e+06 6.734678279336677246e+11 4.966768755119390869e+11 4.994621000000000000e+06 1.969885599206339645e+10 5.126729921684631348e+11
2.475000000000000126e-07 4.690079000000000000e+06 6.730995374022634277e+11 5.011983607316673584e+11 4.994537000000000000e+06 1.970890735245997238e+10 5.173271377815781250e+11
2.499999999999999887e-07 4.688940000000000000e+06 6.727471763426381836e+11 5.051512531965689697e+11 4.994427000000000000e+06 1.971891217205421448e+10 5.214046333133790894e+11
2.525000000000000177e-07 4.687809000000000000e+06 6.723985421260156250e+11 5.085253444026868896e+11 4.994321000000000000e+06 1.972881577311700439e+10 5.248953541294343872e+11
2.549999999999999938e-07 4.686746000000000000e+06 6.720768978714108887e+11 5.112946067112077026e+11 4.994231000000000000e+06 1.973911475477121735e+10 5.277734808043319702e+11
2.575000000000000228e-07 4.685698000000000000e+06 6.717642900937133789e+11 5.134762418588884888e+11 4.994121000000000000e+06 1.974931699206251907e+10 5.300560331085894165e+11
2.599999999999999988e-07 4.684661000000000000e+06 6.714644273625604248e+11 5.150601806668635254e+11 4.994018000000000000e+06 1.975983040408089447e+10 5.317338367118932495e+11
2.625000000000000278e-07 4.683591000000000000e+06 6.711601278017258301e+11 5.160929109194439087e+11 4.993908000000000000e+06 1.977026469049910736e+10 5.328532093731560669e+11
2.650000000000000039e-07 4.682561000000000000e+06 6.708667477096279297e+11 5.165013684046851196e+11 4.993811000000000000e+06 1.978128685373017502e+10 5.333415697686318359e+11
2.674999999999999800e-07 4.681634000000000000e+06 6.705957885999891357e+11 5.163271712256498413e+11 4.993705000000000000e+06 1.979232948134775925e+10 5.332426123773273315e+11
2.700000000000000090e-07 4.680558000000000000e+06 6.703058076194680176e+11 5.156152726729206543e+11 4.993595000000000000e+06 1.980332657452274323e+10 5.326014447854116821e+11
2.724999999999999850e-07 4.679609000000000000e+06 6.700453072889575195e+11 5.143874273855944824e+11 4.993504000000000000e+06 1.981472200513259125e+10 5.314401686413255615e+11
2.750000000000000140e-07 4.678663000000000000e+06 6.697873741185788574e+11 5.127303474250276489e+11 4.993385000000000000e+06 1.982603411410337830e+10 5.298468250423364258e+11
2.774999999999999901e-07 4.677704000000000000e+06 6.695208844916966553e+11 5.106539300507580566e+11 4.993262000000000000e+06 1.983718115782155991e+10 5.278316156101752930e+11
2.800000000000000191e-07 4.676774000000000000e+06 6.692637421525340576e+11 5.082294750385948486e+11 4.993146000000000000e+06 1.984896839502943420e+10 5.254658332198182373e+11
