# time_tab [s], number_e [$\#$], Ek_e [eV], qV_e [eV], number_i [$\#$], Ek_i [eV], qV_i [eV]
0.000000000000000000e+00 4.999992000000000000e+06 7.495052468659423828e+11 7.582471427243840218e+09 4.999992000000000000e+06 1.938649278617517090e+10 8.034384481593360901e+09
2.500000000000000052e-09 4.991608000000000000e+06 7.477271722600820312e+11 7.591714194055434227e+09 4.999973000000000000e+06 1.938564498390148544e+10 8.034425624742740631e+09
5.000000000000000105e-09 4.983370000000000000e+06 7.459943237797081299e+11 8.108329930153794289e+09 4.999934000000000000e+06 1.938579249156380463e+10 8.543221890996870995e+09
7.500000000000000984e-09 4.975306000000000000e+06 7.443108746432416992e+11 9.558116966377004623e+09 4.999908000000000000e+06 1.938485369905289459e+10 9.983309775495353699e+09
1.000000000000000021e-08 4.967568000000000000e+06 7.427089224762657471e+11 1.195916234992919159e+10 4.999886000000000000e+06 1.938373862926150894e+10 1.237742494960345650e+10
1.249999999999999943e-08 4.960015000000000000e+06 7.411238840730097656e+11 1.509852690904263878e+10 4.999856000000000000e+06 1.938338383395369720e+10 1.551660301012998772e+10
1.500000000000000197e-08 4.952808000000000000e+06 7.395978361885051270e+11 1.902855383125016403e+10 4.999829000000000000e+06 1.938460686047813034e+10 1.945580350723327255e+10
1.750000000000000119e-08 4.945787000000000000e+06 7.381024690139677734e+11 2.372435893954753494e+10 4.999794000000000000e+06 1.938386206451917267e+10 2.417239000181117630e+10
2.000000000000000042e-08 4.938849000000000000e+06 7.366297627907248535e+11 2.900424950523764801e+10 4.999765000000000000e+06 1.938447671726321030e+10 2.948556319793463898e+10
2.249999999999999964e-08 4.932042000000000000e+06 7.351762428158167725e+11 3.485937700520994568e+10 4.999730000000000000e+06 1.938427968430438614e+10 3.538681541650335693e+10
2.499999999999999887e-08 4.925617000000000000e+06 7.337932620629797363e+11 4.109535579982009125e+10 4.999700000000000000e+06 1.938365952960841370e+10 4.168216735441948700e+10
2.750000000000000140e-08 4.919398000000000000e+06 7.324340513902651367e+11 4.773982009684895325e+10 4.999670000000000000e+06 1.938444167052499771e+10 4.839926912584231567e+10
3.000000000000000394e-08 4.913319000000000000e+06 7.310757508748278809e+11 5.470371356788986969e+10 4.999638000000000000e+06 1.938328211947766495e+10 5.544985230183986664e+10
3.249999999999999985e-08 4.907433000000000000e+06 7.297493573694943848e+11 6.202614101363455200e+10 4.999608000000000000e+06 1.938290198528402710e+10 6.287183305825928497e+10
3.500000000000000239e-08 4.901731000000000000e+06 7.284609709324134521e+11 6.962792143372196960e+10 4.999566000000000000e+06 1.938250065785319138e+10 7.058526649861306763e+10
3.749999999999999830e-08 4.896347000000000000e+06 7.271969980289797363e+11 7.738321727418382263e+10 4.999536000000000000e+06 1.938457779405333710e+10 7.846373194382118225e+10
4.000000000000000084e-08 4.890962000000000000e+06 7.259440974174997559e+11 8.522357278771905518e+10 4.999509000000000000e+06 1.938512404653578186e+10 8.643729514602151489e+10
4.250000000000000337e-08 4.885859000000000000e+06 7.247589436543471680e+11 9.318346125525196838e+10 4.999474000000000000e+06 1.938588938276079941e+10 9.453909101245034790e+10
4.499999999999999929e-08 4.881117000000000000e+06 7.236214665206052246e+11 1.011882485204432220e+11 4.999437000000000000e+06 1.938780990688931656e+10 1.026929573046081696e+11
4.750000000000000182e-08 4.876452000000000000e+06 7.224933583437200928e+11 1.092678828452242584e+11 4.999403000000000000e+06 1.938758610748471451e+10 1.109282677643083038e+11
4.999999999999999774e-08 4.871949000000000000e+06 7.214011921777563477e+11 1.173431693446180725e+11 4.999366000000000000e+06 1.938767226040892029e+10 1.191652762110383301e+11
5.250000000000000027e-08 4.867462000000000000e+06 7.203192752082697754e+11 1.253911503120610962e+11 4.999336000000000000e+06 1.938952428593237686e+10 1.273794595576378326e+11
5.500000000000000281e-08 4.863139000000000000e+06 7.192526070095407715e+11 1.334807716550117798e+11 4.999310000000000000e+06 1.939078035344105530e+10 1.356383931632718048e+11
5.749999999999999872e-08 4.859071000000000000e+06 7.182402558723920898e+11 1.413943327361262512e+11 4.999268000000000000e+06 1.939180490688244629e+10 1.437227179345176697e+11
6.000000000000000787e-08 4.855130000000000000e+06 7.172552900463137207e+11 1.492714661152712097e+11 4.999227000000000000e+06 1.939152074397660065e+10 1.517721660474649353e+11
6.249999999999999717e-08 4.851231000000000000e+06 7.162846134834501953e+11 1.571088604436803894e+11 4.999193000000000000e+06 1.939153053903009033e+10 1.597834613860075378e+11
6.499999999999999971e-08 4.847548000000000000e+06 7.153485361801412354e+11 1.647554136504440308e+11 4.999163000000000000e+06 1.939114498612500763e+10 1.676052397504896240e+11
6.750000000000000224e-08 4.843923000000000000e+06 7.144255659527847900e+11 1.723014650167704163e+11 4.999124000000000000e+06 1.938989878345907974e+10 1.753270318112590942e+11
7.000000000000000477e-08 4.840362000000000000e+06 7.135115117530092773e+11 1.795733462303934631e+11 4.999096000000000000e+06 1.939138763602852631e+10 1.827733871537320862e+11
7.250000000000000731e-08 4.836978000000000000e+06 7.126355800794211426e+11 1.865683471887698364e+11 4.999059000000000000e+06 1.939090698084597015e+10 1.899407642478666382e+11
7.499999999999999661e-08 4.833723000000000000e+06 7.117986761019848633e+11 1.934109120747443848e+11 4.999028000000000000e+06 1.939110283288294983e+10 1.969536432540943298e+11
7.749999999999999914e-08 4.830594000000000000e+06 7.109809622900322266e+11 1.999731608053598328e+11 4.998994000000000000e+06 1.939118120456525803e+10 2.036845670915870972e+11
8.000000000000000167e-08 4.827433000000000000e+06 7.101579546263750000e+11 2.063619247371541443e+11 4.998960000000000000e+06 1.939151036723406601e+10 2.102399007394465027e+11
8.250000000000000421e-08 4.824499000000000000e+06 7.093712615061070557e+11 2.126478421511493225e+11 4.998927000000000000e+06 1.939207018457465363e+10 2.166894462800735474e+11
8.500000000000000674e-08 4.821690000000000000e+06 7.086251518966577148e+11 2.187465865086897888e+11 4.998887000000000000e+06 1.939245555013992310e+10 2.229479241402199402e+11
8.749999999999999604e-08 4.818908000000000000e+06 7.078841037880950928e+11 2.245154052650928345e+11 4.998847000000000000e+06 1.939172974298689270e+10 2.288735160610213013e+11
8.999999999999999857e-08 4.816263000000000000e+06 7.071750329707033691e+11 2.300445367771874084e+11 4.998813000000000000e+06 1.939151646760085297e+10 2.345576569457071838e+11
9.250000000000000111e-08 4.813619000000000000e+06 7.064711195142264404e+11 2.353299944919104614e+11 4.998772000000000000e+06 1.939109273712190628e+10 2.399968810828849792e+11
9.500000000000000364e-08 4.811046000000000000e+06 7.057821705248710938e+11 2.405290889323857727e+11 4.998729000000000000e+06 1.939075606657392883e+10 2.453474086210304260e+11
9.750000000000000618e-08 4.808544000000000000e+06 7.051099030971757812e+11 2.454948780730393372e+11 4.998681000000000000e+06 1.939047004913512421e+10 2.504617296774241943e+11
9.999999999999999547e-08 4.806041000000000000e+06 7.044363592700310059e+11 2.501822165278983154e+11 4.998635000000000000e+06 1.939121920268056488e+10 2.552957663731536255e+11
1.024999999999999980e-07 4.803649000000000000e+06 7.037872599055544434e+11 2.546131860501189575e+11 4.998598000000000000e+06 1.939124445366247559e+10 2.598705843030722961e+11
1.050000000000000005e-07 4.801254000000000000e+06 7.031342616913959961e+11 2.589050948059540710e+11 4.998552000000000000e+06 1.939285679720706177e+10 2.643026478283580322e+11
1.075000000000000031e-07 4.799037000000000000e+06 7.025203991934287109e+11 2.629311702271355286e+11 4.998508000000000000e+06 1.939362096404031372e+10 2.684644026539812012e+11
1.100000000000000056e-07 4.796867000000000000e+06 7.019186893309682617e+11 2.665631618694956360e+11 4.998463000000000000e+06 1.939520141202743149e+10 2.722296891604306030e+11
1.125000000000000081e-07 4.794764000000000000e+06 7.013289867042322998e+11 2.700939405485556335e+11 4.998415000000000000e+06 1.939548313110520554e+10 2.758931985543090210e+11
1.149999999999999974e-07 4.792620000000000000e+06 7.007301719207868652e+11 2.735011923367919312e+11 4.998370000000000000e+06 1.939593669059162140e+10 2.794317621606651001e+11
1.175000000000000000e-07 4.790543000000000000e+06 7.001559170231427002e+11 2.768156678744904785e+11 4.998328000000000000e+06 1.939692000836029053e+10 2.828750504848191528e+11
1.200000000000000157e-07 4.788513000000000000e+06 6.995954841499456787e+11 2.799753210496813354e+11 4.998287000000000000e+06 1.939804369936573792e+10 2.861613287321563110e+11
1.224999999999999918e-07 4.786607000000000000e+06 6.990474814263862305e+11 2.831719150747451172e+11 4.998236000000000000e+06 1.939998138276619720e+10 2.894829820073929443e+11
1.249999999999999943e-07 4.784689000000000000e+06 6.984949726598867188e+11 2.862436800396853027e+11 4.998187000000000000e+06 1.940148605487136078e+10 2.926773741507731323e+11
1.274999999999999969e-07 4.782834000000000000e+06 6.979625468406525879e+11 2.892003501760420532e+11 4.998150000000000000e+06 1.940267956790859985e+10 2.957536021928739014e+11
1.299999999999999994e-07 4.780973000000000000e+06 6.974313016634555664e+11 2.920120653312714233e+11 4.998113000000000000e+06 1.940411679152283478e+10 2.986834660788502197e+11
1.325000000000000019e-07 4.779164000000000000e+06 6.969226755790275879e+11 2.947969474040822754e+11 4.998072000000000000e+06 1.940610697684231186e+10 3.015852778912904053e+11
1.350000000000000045e-07 4.777467000000000000e+06 6.964368822042021484e+11 2.974361998707568970e+11 4.998032000000000000e+06 1.940765186975163651e+10 3.043395087468110352e+11
1.375000000000000070e-07 4.775805000000000000e+06 6.959526518908586426e+11 2.999213510322016602e+11 4.997983000000000000e+06 1.940938082420577621e+10 3.069392574659569092e+11
1.400000000000000095e-07 4.774089000000000000e+06 6.954578122778754883e+11 3.023463957139804077e+11 4.997942000000000000e+06 1.941052407480387497e+10 3.094800169677819824e+11
1.425000000000000121e-07 4.772427000000000000e+06 6.949693158927978516e+11 3.047992466673837891e+11 4.997892000000000000e+06 1.941263675640902710e+10 3.120483247169003906e+11
1.450000000000000146e-07 4.770779000000000000e+06 6.944851633347806396e+11 3.072127658479537354e+11 4.997843000000000000e+06 1.941532752498745346e+10 3.145766820235476685e+11
1.474999999999999907e-07 4.769232000000000000e+06 6.940165506442451172e+11 3.095610379362147217e+11 4.997801000000000000e+06 1.941607135837007523e+10 3.170400881268776855e+11
1.499999999999999932e-07 4.767572000000000000e+06 6.935286018113128662e+11 3.119793468159078369e+11 4.997751000000000000e+06 1.941849238874362946e+10 3.195727357753125000e+11
1.524999999999999957e-07 4.765999000000000000e+06 6.930580475061094971e+11 3.143342356113190918e+11 4.997703000000000000e+06 1.942094223105892563e+10 3.220398655340440674e+11
1.549999999999999983e-07 4.764485000000000000e+06 6.925994850957009277e+11 3.166166047199418945e+11 4.997655000000000000e+06 1.942376718052162933e+10 3.244329652416141968e+11
1.575000000000000008e-07 4.762924000000000000e+06 6.921424688021260986e+11 3.188633830527587891e+11 4.997610000000000000e+06 1.942779805450829315e+10 3.267891609767756958e+11
1.600000000000000033e-07 4.761418000000000000e+06 6.916981393970550537e+11 3.210755345132553101e+11 4.997560000000000000e+06 1.943062733031574249e+10 3.291087508326860352e+11
1.625000000000000059e-07 4.760015000000000000e+06 6.912570530158264160e+11 3.231167853932000122e+11 4.997509000000000000e+06 1.943232108213552094e+10 3.312571090156586914e+11
1.650000000000000084e-07 4.758580000000000000e+06 6.908214436749594727e+11 3.251496578400957642e+11 4.997441000000000000e+06 1.943421572772034454e+10 3.333967659772872925e+11
1.675000000000000109e-07 4.757175000000000000e+06 6.903894447849674072e+11 3.272429009513104248e+11 4.997397000000000000e+06 1.943609696408192444e+10 3.355950976291156616e+11
1.700000000000000135e-07 4.755724000000000000e+06 6.899529155348493652e+11 3.292589921158996582e+11 4.997337000000000000e+06 1.943935846211603165e+10 3.377149829635383301e+11
1.725000000000000160e-07 4.754361000000000000e+06 6.895365358603660889e+11 3.312077888269178467e+11 4.997277000000000000e+06 1.944249156643918991e+10 3.397667758100879517e+11
1.749999999999999921e-07 4.753049000000000000e+06 6.891236076053139648e+11 3.331385490965164185e+11 4.997225000000000000e+06 1.944492717840067291e+10 3.417991202210892334e+11
1.774999999999999946e-07 4.751674000000000000e+06 6.886968515124406738e+11 3.350482442935782471e+11 4.997169000000000000e+06 1.944963020554832840e+10 3.438091645452780762e+11
1.799999999999999971e-07 4.750404000000000000e+06 6.882885348431044922e+11 3.368398177779065552e+11 4.997109000000000000e+06 1.945244239125094604e+10 3.457011445380236206e+11
1.824999999999999997e-07 4.749138000000000000e+06 6.878916646469219971e+11 3.387523572034013672e+11 4.997048000000000000e+06 1.945480398394344330e+10 3.477150607876907349e+11
1.850000000000000022e-07 4.747806000000000000e+06 6.874721868356955566e+11 3.406496089695538330e+11 4.997004000000000000e+06 1.945863073298037720e+10 3.497144914212308350e+11
1.875000000000000048e-07 4.746540000000000000e+06 6.870584259491838379e+11 3.425618279317620239e+11 4.996951000000000000e+06 1.946223342281197739e+10 3.517298749133464966e+11
1.900000000000000073e-07 4.745313000000000000e+06 6.866646985974855957e+11 3.443595413338901978e+11 4.996885000000000000e+06 1.946530645127171707e+10 3.536305710254092407e+11
1.925000000000000098e-07 4.744115000000000000e+06 6.862679463805515137e+11 3.463001781079948730e+11 4.996823000000000000e+06 1.946928044175820923e+10 3.556747368597562256e+11
1.950000000000000124e-07 4.742911000000000000e+06 6.858742548246354980e+11 3.482950629007100830e+11 4.996756000000000000e+06 1.947184090312374878e+10 3.577736933479546509e+11
1.975000000000000149e-07 4.741697000000000000e+06 6.854787753250706787e+11 3.503237602078064575e+11 4.996714000000000000e+06 1.947533937239003754e+10 3.599055445463917236e+11
1.999999999999999909e-07 4.740482000000000000e+06 6.850882507849984131e+11 3.523006336816892700e+11 4.996640000000000000e+06 1.947876727327002716e+10 3.619838081862907104e+11
2.024999999999999935e-07 4.739382000000000000e+06 6.847210292387402344e+11 3.541183207462101440e+11 4.996554000000000000e+06 1.948230492410916519e+10 3.639018603370114746e+11
2.049999999999999960e-07 4.738250000000000000e+06 6.843438137694599609e+11 3.559925288214889526e+11 4.996495000000000000e+06 1.948568124645086670e+10 3.658762454049366455e+11
2.074999999999999986e-07 4.737072000000000000e+06 6.839524560406842041e+11 3.580680150557431641e+11 4.996427000000000000e+06 1.948956443262512970e+10 3.680521344554054565e+11
2.100000000000000011e-07 4.735982000000000000e+06 6.835834556900264893e+11 3.601727181367747192e+11 4.996361000000000000e+06 1.949252810269127655e+10 3.702580997826440430e+11
2.125000000000000036e-07 4.734907000000000000e+06 6.832120836941270752e+11 3.622907086496666260e+11 4.996307000000000000e+06 1.949698722691003418e+10 3.724769758123999023e+11
2.150000000000000062e-07 4.733771000000000000e+06 6.828367616521430664e+11 3.642535169801475220e+11 4.996239000000000000e+06 1.949959673096026611e+10 3.745397821086983032e+11
2.175000000000000087e-07 4.732695000000000000e+06 6.824685263864409180e+11 3.661440243298914795e+11 4.996169000000000000e+06 1.950201225066580963e+10 3.765286237424497070e+11
2.200000000000000112e-07 4.731620000000000000e+06 6.821050389334758301e+11 3.678922881514681396e+11 4.996098000000000000e+06 1.950673739945590591e+10 3.783730486277060547e+11
2.225000000000000138e-07 4.730575000000000000e+06 6.817429157776928711e+11 3.696587459130679321e+11 4.996042000000000000e+06 1.951048161699394989e+10 3.802340796066849365e+11
2.250000000000000163e-07 4.729561000000000000e+06 6.813983806620773926e+11 3.713533679432661743e+11 4.995978000000000000e+06 1.951609854067565536e+10 3.820221859029069824e+11
2.274999999999999924e-07 4.728505000000000000e+06 6.810420842064243164e+11 3.730215654217145996e+11 4.995896000000000000e+06 1.951943692525505066e+10 3.837819155273468018e+11
2.299999999999999949e-07 4.727510000000000000e+06 6.807009334487145996e+11 3.746190197999688721e+11 4.995827000000000000e+06 1.952283690909708405e+10 3.854694691144368896e+11
2.324999999999999974e-07 4.726498000000000000e+06 6.803590408710388184e+11 3.762465309845624390e+11 4.995753000000000000e+06 1.952777177155363846e+10 3.871869908803145142e+11
2.350000000000000000e-07 4.725538000000000000e+06 6.800231679809221191e+11 3.778711633509647217e+11 4.995681000000000000e+06 1.953361382062127686e+10 3.889013411423221436e+11
2.375000000000000025e-07 4.724555000000000000e+06 6.796803978034306641e+11 3.794662178751602783e+11 4.995607000000000000e+06 1.953737106762158966e+10 3.905854440065375366e+11
2.400000000000000315e-07 4.723645000000000000e+06 6.793563445952052002e+11 3.810874323779860840e+11 4.995530000000000000e+06 1.954227526228886032e+10 3.922955927479284668e+11
2.425000000000000076e-07 4.722694000000000000e+06 6.790242641065447998e+11 3.826365990871151733e+11 4.995476000000000000e+06 1.954670480711101913e+10 3.939338747854174805e+11
2.449999999999999836e-07 4.721761000000000000e+06 6.786924560401979980e+11 3.841365526542813721e+11 4.995402000000000000e+06 1.955096236900273132e+10 3.955226319265916748e+11
2.475000000000000126e-07 4.720792000000000000e+06 6.783584876249945068e+11 3.856769357559965210e+11 4.995332000000000000e+06 1.955682315110898972e+10 3.971505950679306030e+11
2.499999999999999887e-07 4.719882000000000000e+06 6.780326369077890625e+11 3.872395004516087036e+11 4.995249000000000000e+06 1.956172571725251007e+10 3.987991471108736572e+11
2.525000000000000177e-07 4.718993000000000000e+06 6.777155006470852051e+11 3.886835972492233276e+11 4.995179000000000000e+06 1.956676090732398987e+10 4.003285146997774658e+11
2.549999999999999938e-07 4.718078000000000000e+06 6.773921610726638184e+11 3.900654234905440063e+11 4.995094000000000000e+06 1.957182849595874023e+10 4.017957222011275635e+11
2.575000000000000228e-07 4.717204000000000000e+06 6.770713619325577393e+11 3.914125778488596191e+11 4.995011000000000000e+06 1.957657658133800507e+10 4.032269242270623169e+11
2.599999999999999988e-07 4.716390000000000000e+06 6.767684741644468994e+11 3.926738439162053223e+11 4.994914000000000000e+06 1.958267327102714157e+10 4.045720617219006348e+11
2.625000000000000278e-07 4.715483000000000000e+06 6.764436264237756348e+11 3.939113324018887939e+11 4.994840000000000000e+06 1.958890281502575684e+10 4.058946009999230957e+11
2.650000000000000039e-07 4.714653000000000000e+06 6.761390093190552979e+11 3.950790104605848999e+11 4.994766000000000000e+06 1.959275797560527802e+10 4.071472225173709106e+11
2.674999999999999800e-07 4.713817000000000000e+06 6.758271689513029785e+11 3.963136459098682861e+11 4.994682000000000000e+06 1.959818417715827942e+10 4.084663056700618286e+11
2.700000000000000090e-07 4.712924000000000000e+06 6.755140140546147461e+11 3.973917242359927979e+11 4.994591000000000000e+06 1.960284884475513458e+10 4.096277955345520020e+11
2.724999999999999850e-07 4.712039000000000000e+06 6.751960771392194824e+11 3.985452637175850830e+11 4.994502000000000000e+06 1.960785178179054642e+10 4.108633271227068481e+11
2.750000000000000140e-07 4.711234000000000000e+06 6.748898565819233398e+11 3.997291728920031128e+11 4.994417000000000000e+06 1.961364911796971512e+10 4.121285559458938599e+11
2.774999999999999901e-07 4.710419000000000000e+06 6.745871220017145996e+11 4.009403095376284790e+11 4.994334000000000000e+06 1.961769421967510223e+10 4.134198634186258545e+11
2.800000000000000191e-07 4.709582000000000000e+06 6.742837034889354248e+11 4.020822869826698608e+11 4.994249000000000000e+06 1.962370433696965790e+10 4.146403948934834595e+11
