# time_tab [s], number_e [$\#$], Ek_e [eV], qV_e [eV], number_i [$\#$], Ek_i [eV], qV_i [eV]
0.000000000000000000e+00 4.999992000000000000e+06 7.495227462788391113e+11 2.623321042096248245e+10 4.999992000000000000e+06 1.938727132595800781e+10 2.675254712041210175e+10
2.500000000000000052e-09 4.991760000000000000e+06 7.477990426323039551e+11 2.624455038870546341e+10 4.999955000000000000e+06 1.938724665353258514e+10 2.675259194332228470e+10
5.000000000000000105e-09 4.983657000000000000e+06 7.461249601651556396e+11 2.668517400402223969e+10 4.999930000000000000e+06 1.938705380517579651e+10 2.718050017883211136e+10
7.500000000000000984e-09 4.975658000000000000e+06 7.444638693767397461e+11 2.796022667713611221e+10 4.999900000000000000e+06 1.938762921697767639e+10 2.844100940516657257e+10
1.000000000000000021e-08 4.967859000000000000e+06 7.428407509678801270e+11 3.012716921834651184e+10 4.999866000000000000e+06 1.938779397095398712e+10 3.059680903608694077e+10
1.249999999999999943e-08 4.960226000000000000e+06 7.412354811279609375e+11 3.323539079538238144e+10 4.999831000000000000e+06 1.938721751844478607e+10 3.370057198367105865e+10
1.500000000000000197e-08 4.952783000000000000e+06 7.396763860021870117e+11 3.702186314832861328e+10 4.999799000000000000e+06 1.938642376543416595e+10 3.749153004520435333e+10
1.750000000000000119e-08 4.945653000000000000e+06 7.381675121003332520e+11 4.127252815621738434e+10 4.999771000000000000e+06 1.938621989143504715e+10 4.175774128627249146e+10
2.000000000000000042e-08 4.938795000000000000e+06 7.367182479833188477e+11 4.602615515334056091e+10 4.999735000000000000e+06 1.938659798366781616e+10 4.653935857657890320e+10
2.249999999999999964e-08 4.931970000000000000e+06 7.352697611608066406e+11 5.115781844674460602e+10 4.999704000000000000e+06 1.938659567668283081e+10 5.171221190921363068e+10
2.499999999999999887e-08 4.925533000000000000e+06 7.338893790108181152e+11 5.673636722258992004e+10 4.999672000000000000e+06 1.938546657409494781e+10 5.734553496395051575e+10
2.750000000000000140e-08 4.919374000000000000e+06 7.325433377024155273e+11 6.265814432913841248e+10 4.999628000000000000e+06 1.938523610364394379e+10 6.333599379512407684e+10
3.000000000000000394e-08 4.913345000000000000e+06 7.311937224497750244e+11 6.884858808216114807e+10 4.999589000000000000e+06 1.938410366798557281e+10 6.960844116888645935e+10
3.249999999999999985e-08 4.907569000000000000e+06 7.298971639839992676e+11 7.533917252298442078e+10 4.999554000000000000e+06 1.938467856827531815e+10 7.619418737689044189e+10
3.500000000000000239e-08 4.901942000000000000e+06 7.286269954356458740e+11 8.195647719729083252e+10 4.999517000000000000e+06 1.938343242012913895e+10 8.291947534540226746e+10
3.749999999999999830e-08 4.896476000000000000e+06 7.273766013547089844e+11 8.875664473624369812e+10 4.999484000000000000e+06 1.938331640803588486e+10 8.984001650416865540e+10
4.000000000000000084e-08 4.891267000000000000e+06 7.261537169952375488e+11 9.566686259502812195e+10 4.999453000000000000e+06 1.938380087560707855e+10 9.688146528134886169e+10
4.250000000000000337e-08 4.886051000000000000e+06 7.249305586996823730e+11 1.025302012548794556e+11 4.999410000000000000e+06 1.938322600260269928e+10 1.038846643545049896e+11
4.499999999999999929e-08 4.881123000000000000e+06 7.237799224033435059e+11 1.095063000244755554e+11 4.999376000000000000e+06 1.938300643614170837e+10 1.110079734273839722e+11
4.750000000000000182e-08 4.876441000000000000e+06 7.226585582663044434e+11 1.165302816864450531e+11 4.999343000000000000e+06 1.938199347801926422e+10 1.181860971629965515e+11
4.999999999999999774e-08 4.871798000000000000e+06 7.215136146746293945e+11 1.235225952637621155e+11 4.999310000000000000e+06 1.938208211696279526e+10 1.253392108002678528e+11
5.250000000000000027e-08 4.867385000000000000e+06 7.204492220530266113e+11 1.305029513509937134e+11 4.999279000000000000e+06 1.938195692883978271e+10 1.324855564279375153e+11
5.500000000000000281e-08 4.863068000000000000e+06 7.193742564894831543e+11 1.374196337916703033e+11 4.999246000000000000e+06 1.938255143097563934e+10 1.395714920753006897e+11
5.749999999999999872e-08 4.858981000000000000e+06 7.183557071829572754e+11 1.445156535443061523e+11 4.999216000000000000e+06 1.938222652893568420e+10 1.468384203280592346e+11
6.000000000000000787e-08 4.855043000000000000e+06 7.173711306697109375e+11 1.516518661625385132e+11 4.999183000000000000e+06 1.938245826563909149e+10 1.541463635387699280e+11
6.249999999999999717e-08 4.851247000000000000e+06 7.164160690943781738e+11 1.587397293795029297e+11 4.999145000000000000e+06 1.938218450233560181e+10 1.614065842069336243e+11
6.499999999999999971e-08 4.847493000000000000e+06 7.154726384345610352e+11 1.658155543348540649e+11 4.999106000000000000e+06 1.938298128608766937e+10 1.686552770152029114e+11
6.750000000000000224e-08 4.843965000000000000e+06 7.145687237037860107e+11 1.726508861754718323e+11 4.999066000000000000e+06 1.938338553085530853e+10 1.756634108089502258e+11
7.000000000000000477e-08 4.840455000000000000e+06 7.136525327283824463e+11 1.793339795984255066e+11 4.999031000000000000e+06 1.938172922882636261e+10 1.825185030785935669e+11
7.250000000000000731e-08 4.837053000000000000e+06 7.127752194223162842e+11 1.858700454458511047e+11 4.998998000000000000e+06 1.938168175391651154e+10 1.892254310999682617e+11
7.499999999999999661e-08 4.833817000000000000e+06 7.119303000046608887e+11 1.920599503549039917e+11 4.998957000000000000e+06 1.938206668135460663e+10 1.955845356163883057e+11
7.749999999999999914e-08 4.830634000000000000e+06 7.110969536371696777e+11 1.980903326946937561e+11 4.998913000000000000e+06 1.938385888008943939e+10 2.017828313160667725e+11
8.000000000000000167e-08 4.827540000000000000e+06 7.102763568190623779e+11 2.040328644651380310e+11 4.998879000000000000e+06 1.938439091191397858e+10 2.078919756126463623e+11
8.250000000000000421e-08 4.824484000000000000e+06 7.094774562141584473e+11 2.098090854171103821e+11 4.998840000000000000e+06 1.938651979990141296e+10 2.138328890640166931e+11
8.500000000000000674e-08 4.821543000000000000e+06 7.086758523306809082e+11 2.153626065510702209e+11 4.998796000000000000e+06 1.938724267724877548e+10 2.195484241289327393e+11
8.749999999999999604e-08 4.818734000000000000e+06 7.079313587497297363e+11 2.209727692991770935e+11 4.998757000000000000e+06 1.938829584270457458e+10 2.253169996838807068e+11
8.999999999999999857e-08 4.816020000000000000e+06 7.071984326709580078e+11 2.264562354137343445e+11 4.998718000000000000e+06 1.938963083787970352e+10 2.309555252842914734e+11
9.250000000000000111e-08 4.813346000000000000e+06 7.064775889941313477e+11 2.318452701014010315e+11 4.998688000000000000e+06 1.938907289161968231e+10 2.364970254561493225e+11
9.500000000000000364e-08 4.810756000000000000e+06 7.057848500641608887e+11 2.370265285016294556e+11 4.998626000000000000e+06 1.938893914311309814e+10 2.418277577858068848e+11
9.750000000000000618e-08 4.808276000000000000e+06 7.051220673822629395e+11 2.420505807899091492e+11 4.998577000000000000e+06 1.939071419385166550e+10 2.469972039800586243e+11
9.999999999999999547e-08 4.805938000000000000e+06 7.044896461490093994e+11 2.468160371376558228e+11 4.998539000000000000e+06 1.939225799718137360e+10 2.519057305765583191e+11
1.024999999999999980e-07 4.803533000000000000e+06 7.038234648628754883e+11 2.513909363597041016e+11 4.998506000000000000e+06 1.939517601075392914e+10 2.566221285296061096e+11
1.050000000000000005e-07 4.801224000000000000e+06 7.031817956388592529e+11 2.557589772304385986e+11 4.998464000000000000e+06 1.939526196067226028e+10 2.611279774080387268e+11
1.075000000000000031e-07 4.798981000000000000e+06 7.025753517755924072e+11 2.599542735587314758e+11 4.998428000000000000e+06 1.939739828146775055e+10 2.654575900678172607e+11
1.100000000000000056e-07 4.796752000000000000e+06 7.019740625004515381e+11 2.638789979533683167e+11 4.998382000000000000e+06 1.939692806646478271e+10 2.695131052977964783e+11
1.125000000000000081e-07 4.794674000000000000e+06 7.013925152763214111e+11 2.676660766632427368e+11 4.998350000000000000e+06 1.939776964463473129e+10 2.734286892958389587e+11
1.149999999999999974e-07 4.792652000000000000e+06 7.008287739067222900e+11 2.713699910720510559e+11 4.998315000000000000e+06 1.939898352115876007e+10 2.772599472626326904e+11
1.175000000000000000e-07 4.790592000000000000e+06 7.002599544762821045e+11 2.748234085585120544e+11 4.998273000000000000e+06 1.940091559505709839e+10 2.808394815807841797e+11
1.200000000000000157e-07 4.788647000000000000e+06 6.996908124835747070e+11 2.780929466465313110e+11 4.998222000000000000e+06 1.940197608727268219e+10 2.842338649761365967e+11
1.224999999999999918e-07 4.786749000000000000e+06 6.991594741209929199e+11 2.814167440811774902e+11 4.998179000000000000e+06 1.940315510716547775e+10 2.876807873161382446e+11
1.249999999999999943e-07 4.784799000000000000e+06 6.986191322043310547e+11 2.845529176073040161e+11 4.998134000000000000e+06 1.940432576635235977e+10 2.909389911500322876e+11
1.274999999999999969e-07 4.782837000000000000e+06 6.980639092515886230e+11 2.877333846897674561e+11 4.998081000000000000e+06 1.940630809100703049e+10 2.942415560212361450e+11
1.299999999999999994e-07 4.781041000000000000e+06 6.975400104703295898e+11 2.908621984825633545e+11 4.998024000000000000e+06 1.940744737600628662e+10 2.974915122951641846e+11
1.325000000000000019e-07 4.779313000000000000e+06 6.970359518809858398e+11 2.939108525946376953e+11 4.997983000000000000e+06 1.940865111968309021e+10 3.006597752483046875e+11
1.350000000000000045e-07 4.777516000000000000e+06 6.965098701673833008e+11 2.967183988237677002e+11 4.997945000000000000e+06 1.941000952264434814e+10 3.035857793603793945e+11
1.375000000000000070e-07 4.775687000000000000e+06 6.959843253460991211e+11 2.995780215273411255e+11 4.997881000000000000e+06 1.941209907883057022e+10 3.065629100253915405e+11
1.400000000000000095e-07 4.773955000000000000e+06 6.954869435290776367e+11 3.023585101137375488e+11 4.997823000000000000e+06 1.941333841420352936e+10 3.094589487673953247e+11
1.425000000000000121e-07 4.772299000000000000e+06 6.950027242974686279e+11 3.049186088994502563e+11 4.997779000000000000e+06 1.941505605305402756e+10 3.121319825624713135e+11
1.450000000000000146e-07 4.770679000000000000e+06 6.945268630588471680e+11 3.072503948330510254e+11 4.997736000000000000e+06 1.941528712580535126e+10 3.145752916411386108e+11
1.474999999999999907e-07 4.769079000000000000e+06 6.940573318059343262e+11 3.095794881411358643e+11 4.997680000000000000e+06 1.941740318204776001e+10 3.170147684433223877e+11
1.499999999999999932e-07 4.767592000000000000e+06 6.936025561085791016e+11 3.118957718235458374e+11 4.997634000000000000e+06 1.941910008521888733e+10 3.194411507850402222e+11
1.524999999999999957e-07 4.766085000000000000e+06 6.931528324852420654e+11 3.141483165562429199e+11 4.997594000000000000e+06 1.942108283860262680e+10 3.218052238714546509e+11
1.549999999999999983e-07 4.764548000000000000e+06 6.926956971857275391e+11 3.163534885007861328e+11 4.997554000000000000e+06 1.942082304521184540e+10 3.241224119058486938e+11
1.575000000000000008e-07 4.762997000000000000e+06 6.922345047289197998e+11 3.185100602067951050e+11 4.997501000000000000e+06 1.942216773994888687e+10 3.263899800697352905e+11
1.600000000000000033e-07 4.761574000000000000e+06 6.917922751980012207e+11 3.207470243355990601e+11 4.997452000000000000e+06 1.942506611306170273e+10 3.287370871877660522e+11
1.625000000000000059e-07 4.760110000000000000e+06 6.913507227863696289e+11 3.229041362952785645e+11 4.997399000000000000e+06 1.942756581483724213e+10 3.310035388474658813e+11
1.650000000000000084e-07 4.758704000000000000e+06 6.909140982465196533e+11 3.251047681382107544e+11 4.997347000000000000e+06 1.942917051195600510e+10 3.333136285410910034e+11
1.675000000000000109e-07 4.757286000000000000e+06 6.904811966732968750e+11 3.271554978586116943e+11 4.997291000000000000e+06 1.943086548872660828e+10 3.354736755559499512e+11
1.700000000000000135e-07 4.755899000000000000e+06 6.900423567307548828e+11 3.291135762309355469e+11 4.997233000000000000e+06 1.943285752016239929e+10 3.375398826268061523e+11
1.725000000000000160e-07 4.754576000000000000e+06 6.896251518518891602e+11 3.310977890910756226e+11 4.997196000000000000e+06 1.943446248764914703e+10 3.396315315513870239e+11
1.749999999999999921e-07 4.753163000000000000e+06 6.891900509201540527e+11 3.330926133838184814e+11 4.997138000000000000e+06 1.943749684969353104e+10 3.417336191444952393e+11
1.774999999999999946e-07 4.751872000000000000e+06 6.887760015948305664e+11 3.350249397017816772e+11 4.997089000000000000e+06 1.944072127214312744e+10 3.437725605197576904e+11
1.799999999999999971e-07 4.750542000000000000e+06 6.883559955538543701e+11 3.369094090690227661e+11 4.997031000000000000e+06 1.944339626165538025e+10 3.457627330320173950e+11
1.824999999999999997e-07 4.749195000000000000e+06 6.879369526996796875e+11 3.387245274945460815e+11 4.996979000000000000e+06 1.944571674056993103e+10 3.476822182658009033e+11
1.850000000000000022e-07 4.747857000000000000e+06 6.875242160838889160e+11 3.404970996168083496e+11 4.996924000000000000e+06 1.944755650266355896e+10 3.495574535078983765e+11
1.875000000000000048e-07 4.746590000000000000e+06 6.871302870210682373e+11 3.421497063500765991e+11 4.996856000000000000e+06 1.945023210097736740e+10 3.513110891261797485e+11
1.900000000000000073e-07 4.745303000000000000e+06 6.867282011048934326e+11 3.440157131308228760e+11 4.996782000000000000e+06 1.945398530140657806e+10 3.532770382494166870e+11
1.925000000000000098e-07 4.744110000000000000e+06 6.863388589743776855e+11 3.459884004659412231e+11 4.996726000000000000e+06 1.945879096556628799e+10 3.553501231425842285e+11
1.950000000000000124e-07 4.742930000000000000e+06 6.859541607383045654e+11 3.480150268189917603e+11 4.996661000000000000e+06 1.946131067860444641e+10 3.574781908981674194e+11
1.975000000000000149e-07 4.741704000000000000e+06 6.855501207946126709e+11 3.499897171061449585e+11 4.996612000000000000e+06 1.946655505146897507e+10 3.595554129366889648e+11
1.999999999999999909e-07 4.740509000000000000e+06 6.851530072977243652e+11 3.520106806578526001e+11 4.996551000000000000e+06 1.947075413047101212e+10 3.616789030375552368e+11
2.024999999999999935e-07 4.739349000000000000e+06 6.847610266802490234e+11 3.539666552540227661e+11 4.996501000000000000e+06 1.947303286966712952e+10 3.637371131997002563e+11
2.049999999999999960e-07 4.738158000000000000e+06 6.843707935449882812e+11 3.559093361489586792e+11 4.996450000000000000e+06 1.947659750104215622e+10 3.657807896628253784e+11
2.074999999999999986e-07 4.737104000000000000e+06 6.840118874122922363e+11 3.578468507644844971e+11 4.996383000000000000e+06 1.947986023948846054e+10 3.678171234699100952e+11
2.100000000000000011e-07 4.735999000000000000e+06 6.836420723461987305e+11 3.596330407174920654e+11 4.996316000000000000e+06 1.948309123152992249e+10 3.697025679427413940e+11
2.125000000000000036e-07 4.734862000000000000e+06 6.832564005764682617e+11 3.614643347651022339e+11 4.996254000000000000e+06 1.948594463166439819e+10 3.716336134901855469e+11
2.150000000000000062e-07 4.733795000000000000e+06 6.828943428311623535e+11 3.632403646950881958e+11 4.996191000000000000e+06 1.948986344855873108e+10 3.735069529863170776e+11
2.175000000000000087e-07 4.732731000000000000e+06 6.825372381367058105e+11 3.650519332330863647e+11 4.996127000000000000e+06 1.949308665394630432e+10 3.754148793162976685e+11
2.200000000000000112e-07 4.731681000000000000e+06 6.821852771302760010e+11 3.668621283808485107e+11 4.996051000000000000e+06 1.949711746950507355e+10 3.773216074188901367e+11
2.225000000000000138e-07 4.730638000000000000e+06 6.818249613812292480e+11 3.685954077848431396e+11 4.995991000000000000e+06 1.950196553720520782e+10 3.791504224934154053e+11
2.250000000000000163e-07 4.729584000000000000e+06 6.814659113478681641e+11 3.702226676651209717e+11 4.995932000000000000e+06 1.950688082108994293e+10 3.808723231629725342e+11
2.274999999999999924e-07 4.728578000000000000e+06 6.811219782888891602e+11 3.716907941950662842e+11 4.995851000000000000e+06 1.951005471165233612e+10 3.824344031968259888e+11
2.299999999999999949e-07 4.727526000000000000e+06 6.807688484696586914e+11 3.733035005414819336e+11 4.995787000000000000e+06 1.951497479391527939e+10 3.841388830385737305e+11
2.324999999999999974e-07 4.726552000000000000e+06 6.804299807330727539e+11 3.747876166216457520e+11 4.995703000000000000e+06 1.951878105468754578e+10 3.857120068637863770e+11
2.350000000000000000e-07 4.725513000000000000e+06 6.800835384553449707e+11 3.762219177197479858e+11 4.995637000000000000e+06 1.952257966243721771e+10 3.872344001714951782e+11
2.375000000000000025e-07 4.724566000000000000e+06 6.797561645000651855e+11 3.776079074796205444e+11 4.995555000000000000e+06 1.952704391105297089e+10 3.887082097983222656e+11
2.400000000000000315e-07 4.723640000000000000e+06 6.794374177684645996e+11 3.789934628609008179e+11 4.995478000000000000e+06 1.953214843798181915e+10 3.901816921643322144e+11
2.425000000000000076e-07 4.722667000000000000e+06 6.791000633954294434e+11 3.804565406430004883e+11 4.995414000000000000e+06 1.953743240250486755e+10 3.917326579625341797e+11
2.449999999999999836e-07 4.721709000000000000e+06 6.787654178407456055e+11 3.819075054252681274e+11 4.995325000000000000e+06 1.954146642140522385e+10 3.932711309485246582e+11
2.475000000000000126e-07 4.720720000000000000e+06 6.784276791660876465e+11 3.833546554585626221e+11 4.995245000000000000e+06 1.954537382317507935e+10 3.948051386810193481e+11
2.499999999999999887e-07 4.719754000000000000e+06 6.781017246384412842e+11 3.848730733430502930e+11 4.995174000000000000e+06 1.954921230179544830e+10 3.964088637584078369e+11
2.525000000000000177e-07 4.718864000000000000e+06 6.777826900511419678e+11 3.864886345274606934e+11 4.995099000000000000e+06 1.955423465412654114e+10 3.981089992853309326e+11
2.549999999999999938e-07 4.717948000000000000e+06 6.774597174606118164e+11 3.880112918934512939e+11 4.995017000000000000e+06 1.955791685455534363e+10 3.997146999815475464e+11
2.575000000000000228e-07 4.717068000000000000e+06 6.771543235124287109e+11 3.894799411455651855e+11 4.994946000000000000e+06 1.956419749824352264e+10 4.012647462386349487e+11
2.599999999999999988e-07 4.716191000000000000e+06 6.768378719340856934e+11 3.908636736807041626e+11 4.994868000000000000e+06 1.956996850172033691e+10 4.027296950285421753e+11
2.625000000000000278e-07 4.715296000000000000e+06 6.765224767746447754e+11 3.923211469316469116e+11 4.994786000000000000e+06 1.957584645020140076e+10 4.042692508603119507e+11
2.650000000000000039e-07 4.714483000000000000e+06 6.762198858061624756e+11 3.938175507418114624e+11 4.994698000000000000e+06 1.958123139626774597e+10 4.058481607048493652e+11
2.674999999999999800e-07 4.713636000000000000e+06 6.759066454209533691e+11 3.951309996562507324e+11 4.994616000000000000e+06 1.958697174449317169e+10 4.072447586706331177e+11
2.700000000000000090e-07 4.712783000000000000e+06 6.755948855655139160e+11 3.964855904779768677e+11 4.994534000000000000e+06 1.959241254112211227e+10 4.086831121837694092e+11
2.724999999999999850e-07 4.711954000000000000e+06 6.752877760650612793e+11 3.978849317696056519e+11 4.994452000000000000e+06 1.959673654794567108e+10 4.101659725546307373e+11
2.750000000000000140e-07 4.711115000000000000e+06 6.749757361927280273e+11 3.992977616287900391e+11 4.994379000000000000e+06 1.960171088495392990e+10 4.116628500754877930e+11
2.774999999999999901e-07 4.710334000000000000e+06 6.746792422087871094e+11 4.006426627302177124e+11 4.994311000000000000e+06 1.960732686979012299e+10 4.130925861409153442e+11
2.800000000000000191e-07 4.709568000000000000e+06 6.743808943839373779e+11 4.019733364737577515e+11 4.994241000000000000e+06 1.961346614834897614e+10 4.145100099051406250e+11
