# time_tab [s], number_e [$\#$], Ek_e [eV], qV_e [eV], number_i [$\#$], Ek_i [eV], qV_i [eV]
0.000000000000000000e+00 4.999998000000000000e+06 7.500068726054038086e+11 -2.656202537939457703e+10 4.999998000000000000e+06 1.939830884925698471e+10 -2.606727733694681549e+10
2.500000000000000052e-09 4.991657000000000000e+06 7.483391899838785400e+11 -2.655139145558760071e+10 4.999970000000000000e+06 1.939816928536232758e+10 -2.606731787323665619e+10
5.000000000000000105e-09 4.983324000000000000e+06 7.466745188742059326e+11 -2.562654991463193512e+10 4.999938000000000000e+06 1.939801611429662323e+10 -2.515431518519391251e+10
7.500000000000000984e-09 4.975025000000000000e+06 7.450184529271928711e+11 -2.323746450152373123e+10 4.999909000000000000e+06 1.939790745350621796e+10 -2.278029076751848221e+10
1.000000000000000021e-08 4.966786000000000000e+06 7.433606549107508545e+11 -1.944156285662827301e+10 4.999880000000000000e+06 1.939776851487125397e+10 -1.899633032193044281e+10
1.249999999999999943e-08 4.958687000000000000e+06 7.417640330396875000e+11 -1.430274177569633484e+10 4.999851000000000000e+06 1.939761915263496399e+10 -1.386129146823104477e+10
1.500000000000000197e-08 4.950649000000000000e+06 7.401809586499633789e+11 -7.900165526669691086e+09 4.999806000000000000e+06 1.939738690403050995e+10 -7.450357992331123352e+09
1.750000000000000119e-08 4.942639000000000000e+06 7.385666739560842285e+11 -3.176865779712085724e+08 4.999775000000000000e+06 1.939730165505664062e+10 1.560644897685588002e+08
2.000000000000000042e-08 4.934871000000000000e+06 7.369925073318652344e+11 8.319739856290987968e+09 4.999744000000000000e+06 1.939717604681919098e+10 8.835345888270067215e+09
2.249999999999999964e-08 4.927311000000000000e+06 7.354339356153586426e+11 1.789948998546829605e+10 4.999724000000000000e+06 1.939709494833469009e+10 1.847671550718908691e+10
2.499999999999999887e-08 4.920087000000000000e+06 7.339316110672366943e+11 2.830811581569124222e+10 4.999691000000000000e+06 1.939696137772172546e+10 2.896813403561631012e+10
2.750000000000000140e-08 4.912913000000000000e+06 7.324126077867236328e+11 3.940935730622372437e+10 4.999665000000000000e+06 1.939690784196378708e+10 4.017432599379703522e+10
3.000000000000000394e-08 4.905946000000000000e+06 7.309112423928920898e+11 5.107109397729554749e+10 4.999627000000000000e+06 1.939677478471214676e+10 5.196360361232953644e+10
3.249999999999999985e-08 4.899135000000000000e+06 7.294376126015415039e+11 6.313565492081009674e+10 4.999603000000000000e+06 1.939669794220499802e+10 6.417701409012728882e+10
3.500000000000000239e-08 4.892537000000000000e+06 7.279901097472370605e+11 7.543985563554359436e+10 4.999566000000000000e+06 1.939659973158778763e+10 7.664877909794429016e+10
3.749999999999999830e-08 4.886307000000000000e+06 7.266105637636826172e+11 8.783555400845440674e+10 4.999539000000000000e+06 1.939657563040508270e+10 8.922809887610412598e+10
4.000000000000000084e-08 4.880113000000000000e+06 7.252168254490058594e+11 1.001891433455379486e+11 4.999512000000000000e+06 1.939655140888882828e+10 1.017786199478877869e+11
4.250000000000000337e-08 4.874409000000000000e+06 7.239015473965483398e+11 1.123574209741221771e+11 4.999479000000000000e+06 1.939651714130931854e+10 1.141545626921227264e+11
4.499999999999999929e-08 4.868964000000000000e+06 7.226389817822365723e+11 1.241947094051756897e+11 4.999442000000000000e+06 1.939652288412442780e+10 1.262074375645827026e+11
4.750000000000000182e-08 4.863663000000000000e+06 7.214134817610383301e+11 1.355855575732071381e+11 4.999399000000000000e+06 1.939653033726691437e+10 1.378192011696131287e+11
4.999999999999999774e-08 4.858526000000000000e+06 7.202281307511218262e+11 1.464285408247405090e+11 4.999361000000000000e+06 1.939656887742129517e+10 1.488856013879138489e+11
5.250000000000000027e-08 4.853525000000000000e+06 7.190667659884443359e+11 1.565977291183007812e+11 4.999329000000000000e+06 1.939666873922616959e+10 1.592767753118990479e+11
5.500000000000000281e-08 4.848786000000000000e+06 7.179648776312749023e+11 1.659945483042995300e+11 4.999295000000000000e+06 1.939681122220101929e+10 1.688908833487672119e+11
5.749999999999999872e-08 4.844259000000000000e+06 7.169041819346198730e+11 1.745288772605231628e+11 4.999263000000000000e+06 1.939698826325419998e+10 1.776351870217603149e+11
6.000000000000000787e-08 4.840016000000000000e+06 7.159102628765915527e+11 1.821235440326866760e+11 4.999237000000000000e+06 1.939722519011664963e+10 1.854307782395666809e+11
6.249999999999999717e-08 4.836085000000000000e+06 7.150039086564873047e+11 1.887297844592226562e+11 4.999199000000000000e+06 1.939743757152921677e+10 1.922265236156201782e+11
6.499999999999999971e-08 4.832211000000000000e+06 7.141193243662233887e+11 1.943246404347059326e+11 4.999166000000000000e+06 1.939775273015798187e+10 1.979982220560601807e+11
6.750000000000000224e-08 4.828650000000000000e+06 7.133063690729719238e+11 1.989000166240579529e+11 4.999125000000000000e+06 1.939808371886896896e+10 2.027373526968998718e+11
7.000000000000000477e-08 4.825245000000000000e+06 7.125403037923100586e+11 2.024386256965498047e+11 4.999083000000000000e+06 1.939847328179772568e+10 2.064274607845791626e+11
7.250000000000000731e-08 4.822013000000000000e+06 7.118294361032170410e+11 2.049691619965366211e+11 4.999035000000000000e+06 1.939887333131739426e+10 2.090973283881335144e+11
7.499999999999999661e-08 4.818983000000000000e+06 7.111561007970643311e+11 2.065175323738719482e+11 4.998990000000000000e+06 1.939938034396252823e+10 2.107717897878905334e+11
7.749999999999999914e-08 4.816162000000000000e+06 7.105390565695725098e+11 2.071124106417096558e+11 4.998956000000000000e+06 1.939993405928860855e+10 2.114803450462770691e+11
8.000000000000000167e-08 4.813463000000000000e+06 7.099526728819483643e+11 2.068277921577511902e+11 4.998909000000000000e+06 1.940047069369658279e+10 2.112987820884272461e+11
8.250000000000000421e-08 4.810939000000000000e+06 7.094195808149998779e+11 2.057282397471588745e+11 4.998861000000000000e+06 1.940107251324468231e+10 2.102916282560078430e+11
8.500000000000000674e-08 4.808587000000000000e+06 7.089216271603215332e+11 2.038893857631536255e+11 4.998814000000000000e+06 1.940178441094196320e+10 2.085356111589244995e+11
8.749999999999999604e-08 4.806405000000000000e+06 7.084520754879514160e+11 2.014153234609739990e+11 4.998775000000000000e+06 1.940256890780704880e+10 2.061365199519088440e+11
8.999999999999999857e-08 4.804308000000000000e+06 7.080123103419731445e+11 1.984132383883715515e+11 4.998730000000000000e+06 1.940337274358752060e+10 2.032019605628974915e+11
9.250000000000000111e-08 4.802428000000000000e+06 7.076167022114320068e+11 1.949846133664459839e+11 4.998685000000000000e+06 1.940423931707550049e+10 1.998343289926434021e+11
9.500000000000000364e-08 4.800615000000000000e+06 7.072275210081662598e+11 1.912517136574143677e+11 4.998631000000000000e+06 1.940512933608610916e+10 1.961560643413498535e+11
9.750000000000000618e-08 4.798939000000000000e+06 7.068731500035759277e+11 1.873287875320568237e+11 4.998585000000000000e+06 1.940610858206896210e+10 1.922811733235861206e+11
9.999999999999999547e-08 4.797417000000000000e+06 7.065581774778579102e+11 1.833350442818104553e+11 4.998543000000000000e+06 1.940718958144251633e+10 1.883292710812116394e+11
1.024999999999999980e-07 4.796057000000000000e+06 7.062761608340195312e+11 1.793866147537677917e+11 4.998499000000000000e+06 1.940825385404987717e+10 1.844170381301691895e+11
1.050000000000000005e-07 4.794786000000000000e+06 7.060121274867668457e+11 1.756062721115851440e+11 4.998445000000000000e+06 1.940938861284252167e+10 1.806674416560113220e+11
1.075000000000000031e-07 4.793585000000000000e+06 7.057618291905075684e+11 1.721022496694279785e+11 4.998401000000000000e+06 1.941060355642764664e+10 1.771885952001607971e+11
1.100000000000000056e-07 4.792561000000000000e+06 7.055544072609814453e+11 1.689703769879647217e+11 4.998338000000000000e+06 1.941170581400990295e+10 1.740763024140118713e+11
1.125000000000000081e-07 4.791653000000000000e+06 7.053649475348085938e+11 1.663078265816574402e+11 4.998288000000000000e+06 1.941304284738303757e+10 1.714273651091655273e+11
1.149999999999999974e-07 4.790859000000000000e+06 7.052068537347755127e+11 1.642003758415544739e+11 4.998229000000000000e+06 1.941433476860035706e+10 1.693276106306322021e+11
1.175000000000000000e-07 4.790080000000000000e+06 7.050542247186832275e+11 1.627162429550921631e+11 4.998179000000000000e+06 1.941572721593769836e+10 1.678451515079163513e+11
1.200000000000000157e-07 4.789437000000000000e+06 7.049260289278769531e+11 1.619082208300160217e+11 4.998140000000000000e+06 1.941722376271537781e+10 1.670326533980496521e+11
1.224999999999999918e-07 4.788856000000000000e+06 7.048109898614909668e+11 1.618131583425447083e+11 4.998093000000000000e+06 1.941867591288234711e+10 1.669270721959255066e+11
1.249999999999999943e-07 4.788367000000000000e+06 7.047172686031322021e+11 1.624574354126303711e+11 4.998041000000000000e+06 1.942022552517299271e+10 1.675557674817007141e+11
1.274999999999999969e-07 4.787983000000000000e+06 7.046490905028261719e+11 1.638491877322879028e+11 4.997986000000000000e+06 1.942179207671255875e+10 1.689284734791503601e+11
1.299999999999999994e-07 4.787643000000000000e+06 7.045893564498012695e+11 1.659854516719682007e+11 4.997950000000000000e+06 1.942355599416984940e+10 1.710435994102855530e+11
1.325000000000000019e-07 4.787348000000000000e+06 7.045392510097886963e+11 1.688520458664291382e+11 4.997901000000000000e+06 1.942526711099602509e+10 1.738876647651918335e+11
1.350000000000000045e-07 4.787113000000000000e+06 7.045025461660308838e+11 1.724075311789883423e+11 4.997849000000000000e+06 1.942700958174542999e+10 1.774210422717004089e+11
1.375000000000000070e-07 4.786922000000000000e+06 7.044702203715457764e+11 1.766008456814212341e+11 4.997802000000000000e+06 1.942875718224497223e+10 1.815947214064879761e+11
1.400000000000000095e-07 4.786767000000000000e+06 7.044420901792690430e+11 1.813680729306687012e+11 4.997751000000000000e+06 1.943059791206605148e+10 1.863462081221481323e+11
1.425000000000000121e-07 4.786639000000000000e+06 7.044158737589184570e+11 1.866357460955842285e+11 4.997694000000000000e+06 1.943250116075105286e+10 1.916035282658947754e+11
1.450000000000000146e-07 4.786553000000000000e+06 7.043939216773303223e+11 1.923149812994629517e+11 4.997626000000000000e+06 1.943430019646911621e+10 1.972793789840526733e+11
1.474999999999999907e-07 4.786477000000000000e+06 7.043657147482583008e+11 1.983171067553521729e+11 4.997569000000000000e+06 1.943622014878978348e+10 2.032864525061849365e+11
1.499999999999999932e-07 4.786419000000000000e+06 7.043320539748500977e+11 2.045357838959537659e+11 4.997515000000000000e+06 1.943820294426057053e+10 2.095186490451816101e+11
1.524999999999999957e-07 4.786384000000000000e+06 7.042955521481917725e+11 2.108662695914717407e+11 4.997448000000000000e+06 1.944012610974274826e+10 2.158727852449399414e+11
1.549999999999999983e-07 4.786349000000000000e+06 7.042460413990375977e+11 2.172016573744357605e+11 4.997400000000000000e+06 1.944227334692456055e+10 2.222422970806390076e+11
1.575000000000000008e-07 4.786314000000000000e+06 7.041908386789492188e+11 2.234330580307168884e+11 4.997326000000000000e+06 1.944430147748191071e+10 2.285176782145440063e+11
1.600000000000000033e-07 4.786291000000000000e+06 7.041284588224677734e+11 2.294501156640902100e+11 4.997255000000000000e+06 1.944634036549211884e+10 2.345885381415477600e+11
1.625000000000000059e-07 4.786273000000000000e+06 7.040570665504838867e+11 2.351506002045104370e+11 4.997189000000000000e+06 1.944854102559555054e+10 2.403520035705587769e+11
1.650000000000000084e-07 4.786252000000000000e+06 7.039793537640139160e+11 2.404328654798451233e+11 4.997139000000000000e+06 1.945091236589944077e+10 2.457047827848703613e+11
1.675000000000000109e-07 4.786225000000000000e+06 7.038954645122414551e+11 2.452088761145016174e+11 4.997071000000000000e+06 1.945330136069513702e+10 2.505568243895876770e+11
1.700000000000000135e-07 4.786205000000000000e+06 7.038092584675526123e+11 2.493960504804087219e+11 4.997009000000000000e+06 1.945576391520508575e+10 2.548233398840962830e+11
1.725000000000000160e-07 4.786176000000000000e+06 7.037214175519621582e+11 2.529228151356798706e+11 4.996938000000000000e+06 1.945822695945438004e+10 2.584300226611889954e+11
1.749999999999999921e-07 4.786132000000000000e+06 7.036340017349498291e+11 2.557274973496513977e+11 4.996870000000000000e+06 1.946074721247409058e+10 2.613121941718517761e+11
1.774999999999999946e-07 4.786117000000000000e+06 7.035538122138325195e+11 2.577607115034967346e+11 4.996809000000000000e+06 1.946342399920261383e+10 2.634176553755531006e+11
1.799999999999999971e-07 4.786091000000000000e+06 7.034807590598521729e+11 2.589922822284255676e+11 4.996738000000000000e+06 1.946611594547441101e+10 2.647143522060776672e+11
1.824999999999999997e-07 4.786066000000000000e+06 7.034162218221622314e+11 2.593972360674855347e+11 4.996678000000000000e+06 1.946897404870832062e+10 2.651759407872916565e+11
1.850000000000000022e-07 4.786041000000000000e+06 7.033616018958841553e+11 2.589694962976063232e+11 4.996622000000000000e+06 1.947191688908150482e+10 2.647945843495759583e+11
1.875000000000000048e-07 4.786021000000000000e+06 7.033180555561115723e+11 2.577150357613670654e+11 4.996554000000000000e+06 1.947486716314680481e+10 2.635757829620669250e+11
1.900000000000000073e-07 4.786006000000000000e+06 7.032870372703896484e+11 2.556537895693189087e+11 4.996492000000000000e+06 1.947784676160946274e+10 2.615390737812996521e+11
1.925000000000000098e-07 4.785990000000000000e+06 7.032677061797634277e+11 2.528205117228210754e+11 4.996440000000000000e+06 1.948103252409134293e+10 2.587189587596379089e+11
1.950000000000000124e-07 4.785966000000000000e+06 7.032582987620150146e+11 2.492646223423547974e+11 4.996372000000000000e+06 1.948419114195634842e+10 2.551644698122899170e+11
1.975000000000000149e-07 4.785951000000000000e+06 7.032629877497198486e+11 2.450453621102154846e+11 4.996301000000000000e+06 1.948739625808563232e+10 2.509344565436290894e+11
1.999999999999999909e-07 4.785934000000000000e+06 7.032795760690230713e+11 2.402356499304165649e+11 4.996247000000000000e+06 1.949075188448194122e+10 2.461024296968340759e+11
2.024999999999999935e-07 4.785917000000000000e+06 7.033060686412529297e+11 2.349147815861751404e+11 4.996183000000000000e+06 1.949407953776890182e+10 2.407491311494186096e+11
2.049999999999999960e-07 4.785900000000000000e+06 7.033420636786085205e+11 2.291786265640283508e+11 4.996121000000000000e+06 1.949749393561362076e+10 2.349717804619017029e+11
2.074999999999999986e-07 4.785881000000000000e+06 7.033859592609239502e+11 2.231240963623899841e+11 4.996048000000000000e+06 1.950077710849163818e+10 2.288683297092174988e+11
2.100000000000000011e-07 4.785866000000000000e+06 7.034360002251801758e+11 2.168513005053444824e+11 4.995970000000000000e+06 1.950417672415726089e+10 2.225406738003228760e+11
2.125000000000000036e-07 4.785853000000000000e+06 7.034920768414715576e+11 2.104699418631018066e+11 4.995886000000000000e+06 1.950756049390175629e+10 2.161002945918635559e+11
2.150000000000000062e-07 4.785836000000000000e+06 7.035504137773266602e+11 2.040898850780634766e+11 4.995807000000000000e+06 1.951102315533921051e+10 2.096585441053300171e+11
2.175000000000000087e-07 4.785825000000000000e+06 7.036104038051472168e+11 1.978216279760351257e+11 4.995738000000000000e+06 1.951456800015468597e+10 2.033272370321549377e+11
2.200000000000000112e-07 4.785812000000000000e+06 7.036689316768636475e+11 1.917709503380155334e+11 4.995672000000000000e+06 1.951809115293539429e+10 1.972143416827907715e+11
2.225000000000000138e-07 4.785805000000000000e+06 7.037255780606496582e+11 1.860436570705002136e+11 4.995600000000000000e+06 1.952163940722970581e+10 1.914272348346061707e+11
2.250000000000000163e-07 4.785793000000000000e+06 7.037777793482921143e+11 1.807377771660095215e+11 4.995537000000000000e+06 1.952531749846436310e+10 1.860653979913803406e+11
2.274999999999999924e-07 4.785784000000000000e+06 7.038253743716945801e+11 1.759444310380318909e+11 4.995473000000000000e+06 1.952900287638014603e+10 1.812210857852290344e+11
2.299999999999999949e-07 4.785776000000000000e+06 7.038665568418961182e+11 1.717476930762143250e+11 4.995388000000000000e+06 1.953248744477850342e+10 1.769792147063472900e+11
2.324999999999999974e-07 4.785764000000000000e+06 7.039013158539331055e+11 1.682219369656687012e+11 4.995307000000000000e+06 1.953607236073145676e+10 1.734142830461919556e+11
2.350000000000000000e-07 4.785754000000000000e+06 7.039301092650407715e+11 1.654249235893910828e+11 4.995222000000000000e+06 1.953972421903884888e+10 1.705841382083162231e+11
2.375000000000000025e-07 4.785746000000000000e+06 7.039529556306693115e+11 1.634062411422256470e+11 4.995128000000000000e+06 1.954325833331797791e+10 1.685382879462225037e+11
2.400000000000000315e-07 4.785740000000000000e+06 7.039713854712680664e+11 1.622036499412347412e+11 4.995052000000000000e+06 1.954693279611103821e+10 1.673137988928267212e+11
2.425000000000000076e-07 4.785727000000000000e+06 7.039834585384116211e+11 1.618372116704920349e+11 4.994967000000000000e+06 1.955069659501465225e+10 1.669296533829760742e+11
2.449999999999999836e-07 4.785722000000000000e+06 7.039932332528875732e+11 1.623142069515764160e+11 4.994894000000000000e+06 1.955452315550516891e+10 1.673923749977563171e+11
2.475000000000000126e-07 4.785708000000000000e+06 7.039971396545596924e+11 1.636232262272112732e+11 4.994819000000000000e+06 1.955844937541332245e+10 1.686905557319028625e+11
2.499999999999999887e-07 4.785700000000000000e+06 7.039993756633565674e+11 1.657417816343003235e+11 4.994743000000000000e+06 1.956231760491109467e+10 1.708011446117617798e+11
2.525000000000000177e-07 4.785686000000000000e+06 7.039978519708283691e+11 1.686341254196114502e+11 4.994685000000000000e+06 1.956638980698718262e+10 1.736875496951373291e+11
2.549999999999999938e-07 4.785672000000000000e+06 7.039940881525482178e+11 1.722484370270749207e+11 4.994609000000000000e+06 1.957038824158330536e+10 1.772979023223666077e+11
2.575000000000000228e-07 4.785655000000000000e+06 7.039860725669903564e+11 1.765194322994269409e+11 4.994526000000000000e+06 1.957439394718191910e+10 1.815672892377556152e+11
2.599999999999999988e-07 4.785633000000000000e+06 7.039770595621378174e+11 1.813722225518296509e+11 4.994438000000000000e+06 1.957840735790644073e+10 1.864209241198517456e+11
2.625000000000000278e-07 4.785595000000000000e+06 7.039615353629826660e+11 1.867168228973727112e+11 4.994360000000000000e+06 1.958250656425372696e+10 1.917692821092403870e+11
2.650000000000000039e-07 4.785527000000000000e+06 7.039371165041076660e+11 1.924616407925030823e+11 4.994283000000000000e+06 1.958669353108903885e+10 1.975211343395108948e+11
2.674999999999999800e-07 4.785462000000000000e+06 7.039098770633234863e+11 1.985045165010901489e+11 4.994181000000000000e+06 1.959071687312025452e+10 2.035742861336950378e+11
2.700000000000000090e-07 4.785373000000000000e+06 7.038736650291262207e+11 2.047376108817770081e+11 4.994092000000000000e+06 1.959497376000918579e+10 2.098218214031235657e+11
2.724999999999999850e-07 4.785278000000000000e+06 7.038350834183746338e+11 2.110493972511434937e+11 4.994009000000000000e+06 1.959930720216711807e+10 2.161523820597085266e+11
2.750000000000000140e-07 4.785161000000000000e+06 7.037853267739514160e+11 2.173289705450520935e+11 4.993926000000000000e+06 1.960360789889179230e+10 2.224547157549230347e+11
2.774999999999999901e-07 4.785035000000000000e+06 7.037313680076501465e+11 2.234654943863455200e+11 4.993836000000000000e+06 1.960801324538810730e+10 2.286184692654515991e+11
2.800000000000000191e-07 4.784898000000000000e+06 7.036706570539914551e+11 2.293523278715361938e+11 4.993736000000000000e+06 1.961244750786787415e+10 2.345363729404486694e+11
