# time_tab [s], number_e [$\#$], Ek_e [eV], qV_e [eV], number_i [$\#$], Ek_i [eV], qV_i [eV]
0.000000000000000000e+00 4.999998000000000000e+06 7.499511521583466797e+11 1.896225514637391567e+09 4.999998000000000000e+06 1.939174043743038177e+10 2.336656146748867989e+09
2.500000000000000052e-09 4.991504000000000000e+06 7.482327337338850098e+11 1.906456456042359352e+09 4.999968000000000000e+06 1.939155913810937119e+10 2.336681795479780197e+09
5.000000000000000105e-09 4.983064000000000000e+06 7.465678130089792480e+11 2.686902375090280056e+09 4.999927000000000000e+06 1.939133212841370392e+10 3.106800949971818447e+09
7.500000000000000984e-09 4.974718000000000000e+06 7.449028982050391846e+11 4.632190033478814125e+09 4.999901000000000000e+06 1.939121357807910156e+10 5.039905678511771202e+09
1.000000000000000021e-08 4.966395000000000000e+06 7.432352637000915527e+11 7.741764147683637619e+09 4.999876000000000000e+06 1.939108883342130280e+10 8.141758496637435913e+09
1.249999999999999943e-08 4.958178000000000000e+06 7.415948912016826172e+11 1.192433294823173141e+10 4.999846000000000000e+06 1.939093713251693344e+10 1.232598485881843376e+10
1.500000000000000197e-08 4.950254000000000000e+06 7.400055817058898926e+11 1.712385836876539040e+10 4.999823000000000000e+06 1.939084797520665359e+10 1.753968854900294495e+10
1.750000000000000119e-08 4.942586000000000000e+06 7.384743050438175049e+11 2.327883050170281601e+10 4.999798000000000000e+06 1.939076557746277618e+10 2.372452092354760742e+10
2.000000000000000042e-08 4.934683000000000000e+06 7.368623528962143555e+11 3.035741585589604187e+10 4.999766000000000000e+06 1.939065025705472946e+10 3.085141230662926102e+10
2.249999999999999964e-08 4.927189000000000000e+06 7.353058819791342773e+11 3.823150624090932465e+10 4.999737000000000000e+06 1.939053871096963501e+10 3.879395083548973083e+10
2.499999999999999887e-08 4.919758000000000000e+06 7.337551783581115723e+11 4.678945002253199005e+10 4.999704000000000000e+06 1.939039116544036865e+10 4.744046378592402649e+10
2.750000000000000140e-08 4.912694000000000000e+06 7.322664956005817871e+11 5.593481845591311646e+10 4.999676000000000000e+06 1.939031529906960297e+10 5.669505292125029755e+10
3.000000000000000394e-08 4.905867000000000000e+06 7.307805022064645996e+11 6.556168891668473053e+10 4.999634000000000000e+06 1.939016052099545288e+10 6.645180897434096527e+10
3.249999999999999985e-08 4.899185000000000000e+06 7.293365138415194092e+11 7.556976381428530884e+10 4.999601000000000000e+06 1.939002357842242050e+10 7.660922709875102234e+10
3.500000000000000239e-08 4.892677000000000000e+06 7.278932040074655762e+11 8.585207354275331116e+10 4.999570000000000000e+06 1.938991953768605804e+10 8.705859203950582886e+10
3.749999999999999830e-08 4.886414000000000000e+06 7.264992088554377441e+11 9.629603858022857666e+10 4.999536000000000000e+06 1.938980372896061325e+10 9.768435694332051086e+10
4.000000000000000084e-08 4.880421000000000000e+06 7.251526389605012207e+11 1.067905847208717651e+11 4.999495000000000000e+06 1.938966689324464035e+10 1.083728061249984436e+11
4.250000000000000337e-08 4.874667000000000000e+06 7.238519135402482910e+11 1.172227644214218903e+11 4.999464000000000000e+06 1.938962141278093719e+10 1.190086748667958221e+11
4.499999999999999929e-08 4.869194000000000000e+06 7.226087550336628418e+11 1.274926528981331329e+11 4.999438000000000000e+06 1.938962829791483688e+10 1.294894146601007385e+11
4.750000000000000182e-08 4.863915000000000000e+06 7.213952812221287842e+11 1.375018261708757629e+11 4.999407000000000000e+06 1.938962533910545349e+10 1.397139399605570068e+11
4.999999999999999774e-08 4.858782000000000000e+06 7.202390743078873291e+11 1.471529177751038818e+11 4.999370000000000000e+06 1.938963713118142319e+10 1.495822416437810364e+11
5.250000000000000027e-08 4.853993000000000000e+06 7.191236581955461426e+11 1.563614311261821899e+11 4.999334000000000000e+06 1.938969396317879486e+10 1.590067860967087402e+11
5.500000000000000281e-08 4.849341000000000000e+06 7.180394665585895996e+11 1.650301522592904663e+11 4.999304000000000000e+06 1.938983199903855133e+10 1.678873302265047913e+11
5.749999999999999872e-08 4.844843000000000000e+06 7.170132995436331787e+11 1.730835222983321533e+11 4.999274000000000000e+06 1.938998955171912384e+10 1.761463300478468018e+11
6.000000000000000787e-08 4.840708000000000000e+06 7.160580804315721436e+11 1.804608125995156250e+11 4.999240000000000000e+06 1.939017453822199631e+10 1.837210013367041626e+11
6.249999999999999717e-08 4.836725000000000000e+06 7.151330119545517578e+11 1.871198212435129089e+11 4.999205000000000000e+06 1.939043909938283539e+10 1.905673879239496460e+11
6.499999999999999971e-08 4.832842000000000000e+06 7.142538730940622559e+11 1.930165129199492188e+11 4.999175000000000000e+06 1.939075340664281464e+10 1.966404794610831299e+11
6.750000000000000224e-08 4.829268000000000000e+06 7.134450007872050781e+11 1.981257480645041809e+11 4.999131000000000000e+06 1.939106284886337280e+10 2.019144571106697083e+11
7.000000000000000477e-08 4.825810000000000000e+06 7.126729881256203613e+11 2.024336172899545288e+11 4.999098000000000000e+06 1.939148476648256683e+10 2.063745538337604370e+11
7.250000000000000731e-08 4.822532000000000000e+06 7.119457912608640137e+11 2.059356362197227173e+11 4.999060000000000000e+06 1.939189587238114166e+10 2.100155798269031067e+11
7.499999999999999661e-08 4.819505000000000000e+06 7.112775176877180176e+11 2.086270231730631714e+11 4.999019000000000000e+06 1.939231460573589706e+10 2.128332511823512573e+11
7.749999999999999914e-08 4.816629000000000000e+06 7.106675539222041016e+11 2.105473658540369873e+11 4.998976000000000000e+06 1.939284138973110962e+10 2.148689166269916077e+11
8.000000000000000167e-08 4.813922000000000000e+06 7.100804602035136719e+11 2.117381604924236450e+11 4.998936000000000000e+06 1.939339324292626190e+10 2.161651059932630005e+11
8.250000000000000421e-08 4.811433000000000000e+06 7.095373060876000977e+11 2.122494063128046265e+11 4.998904000000000000e+06 1.939408178776324081e+10 2.167720109695032654e+11
8.500000000000000674e-08 4.808947000000000000e+06 7.089960842749667969e+11 2.121345528197962646e+11 4.998856000000000000e+06 1.939471901110569763e+10 2.167430804983043213e+11
8.749999999999999604e-08 4.806682000000000000e+06 7.085059383367150879e+11 2.114467232901787415e+11 4.998814000000000000e+06 1.939548546326171875e+10 2.161314660825397034e+11
8.999999999999999857e-08 4.804640000000000000e+06 7.080700989781867676e+11 2.102559703092588196e+11 4.998770000000000000e+06 1.939627134123130798e+10 2.150079787046886597e+11
9.250000000000000111e-08 4.802704000000000000e+06 7.076680231984899902e+11 2.086359638706379700e+11 4.998725000000000000e+06 1.939710294250038528e+10 2.134473300807250671e+11
9.500000000000000364e-08 4.800951000000000000e+06 7.073079318862006836e+11 2.066798294463658447e+11 4.998672000000000000e+06 1.939790832749411011e+10 2.115439150568156433e+11
9.750000000000000618e-08 4.799277000000000000e+06 7.069514898985551758e+11 2.044850586768544617e+11 4.998619000000000000e+06 1.939877305256718063e+10 2.093955123709266357e+11
9.999999999999999547e-08 4.797704000000000000e+06 7.066311201551748047e+11 2.021305880450962524e+11 4.998576000000000000e+06 1.939978206840317917e+10 2.070810850309316406e+11
1.024999999999999980e-07 4.796293000000000000e+06 7.063372659111430664e+11 1.997037771586873169e+11 4.998536000000000000e+06 1.940088993423149109e+10 2.046878018479615173e+11
1.050000000000000005e-07 4.795011000000000000e+06 7.060723011412403564e+11 1.972917783582357788e+11 4.998483000000000000e+06 1.940188163425470352e+10 2.023024735215841064e+11
1.075000000000000031e-07 4.793873000000000000e+06 7.058352054777327881e+11 1.949822070586260986e+11 4.998429000000000000e+06 1.940298758723936462e+10 2.000127748103877869e+11
1.100000000000000056e-07 4.792879000000000000e+06 7.056251568156872559e+11 1.928679092647571716e+11 4.998373000000000000e+06 1.940411676738626480e+10 1.979121600893673401e+11
1.125000000000000081e-07 4.791959000000000000e+06 7.054378724116118164e+11 1.910161122852756958e+11 4.998326000000000000e+06 1.940540428494938278e+10 1.960685284687829285e+11
1.149999999999999974e-07 4.791117000000000000e+06 7.052704520410587158e+11 1.894952368187231445e+11 4.998272000000000000e+06 1.940670930771825409e+10 1.945503779370297546e+11
1.175000000000000000e-07 4.790347000000000000e+06 7.051119703900284424e+11 1.883618053195008240e+11 4.998219000000000000e+06 1.940806475632582855e+10 1.934141495028663025e+11
1.200000000000000157e-07 4.789709000000000000e+06 7.049899497803911133e+11 1.876631185976672363e+11 4.998175000000000000e+06 1.940946764279750443e+10 1.927076464552897034e+11
1.224999999999999918e-07 4.789186000000000000e+06 7.048888441961552734e+11 1.874406515428828735e+11 4.998128000000000000e+06 1.941091651505182266e+10 1.924733898384882812e+11
1.249999999999999943e-07 4.788703000000000000e+06 7.047980400163933105e+11 1.877267519162992554e+11 4.998074000000000000e+06 1.941236899400924683e+10 1.927444419340358276e+11
1.274999999999999969e-07 4.788314000000000000e+06 7.047294114951596680e+11 1.885378505584531860e+11 4.998012000000000000e+06 1.941388594500377655e+10 1.935382591684027710e+11
1.299999999999999994e-07 4.787933000000000000e+06 7.046580937735212402e+11 1.898774618983076782e+11 4.997946000000000000e+06 1.941548056380112457e+10 1.948596585230663757e+11
1.325000000000000019e-07 4.787648000000000000e+06 7.046042288054467773e+11 1.917373174956527405e+11 4.997897000000000000e+06 1.941709499698112488e+10 1.967008315257427673e+11
1.350000000000000045e-07 4.787417000000000000e+06 7.045622198964272461e+11 1.940989508198521118e+11 4.997859000000000000e+06 1.941885132431462860e+10 1.990448939132306824e+11
1.375000000000000070e-07 4.787217000000000000e+06 7.045216549503489990e+11 1.969358535428171997e+11 4.997790000000000000e+06 1.942053006999434662e+10 2.018666365876398621e+11
1.400000000000000095e-07 4.787074000000000000e+06 7.044916583899802246e+11 2.002100320395101013e+11 4.997750000000000000e+06 1.942235849078210831e+10 2.051294065084537048e+11
1.425000000000000121e-07 4.786956000000000000e+06 7.044630789510460205e+11 2.038703491276916504e+11 4.997701000000000000e+06 1.942419001930778503e+10 2.087831382729450073e+11
1.450000000000000146e-07 4.786858000000000000e+06 7.044335894965317383e+11 2.078583511071930542e+11 4.997640000000000000e+06 1.942600863833984375e+10 2.127707394446739502e+11
1.474999999999999907e-07 4.786806000000000000e+06 7.044098350057624512e+11 2.121151737449177856e+11 4.997590000000000000e+06 1.942792279717613220e+10 2.170345428258884583e+11
1.499999999999999932e-07 4.786762000000000000e+06 7.043777037503957520e+11 2.165672270522944641e+11 4.997541000000000000e+06 1.942996991542677307e+10 2.215018014400266724e+11
1.524999999999999957e-07 4.786723000000000000e+06 7.043388768354223633e+11 2.211402608452113953e+11 4.997489000000000000e+06 1.943201732578973389e+10 2.260986082279350586e+11
1.549999999999999983e-07 4.786695000000000000e+06 7.042950890004888916e+11 2.257575295692761536e+11 4.997438000000000000e+06 1.943411254124654388e+10 2.307486901042723083e+11
1.575000000000000008e-07 4.786668000000000000e+06 7.042436285685791016e+11 2.303373100789647522e+11 4.997385000000000000e+06 1.943627424232614899e+10 2.353711922486730957e+11
1.600000000000000033e-07 4.786646000000000000e+06 7.041834640167219238e+11 2.348002732987480774e+11 4.997310000000000000e+06 1.943821179668265915e+10 2.398864397876776733e+11
1.625000000000000059e-07 4.786619000000000000e+06 7.041142671946765137e+11 2.390712247724605713e+11 4.997254000000000000e+06 1.944045406522588348e+10 2.442183454999093018e+11
1.650000000000000084e-07 4.786595000000000000e+06 7.040380703932397461e+11 2.430767986161207275e+11 4.997198000000000000e+06 1.944277515495746231e+10 2.482918809703705750e+11
1.675000000000000109e-07 4.786560000000000000e+06 7.039552808473898926e+11 2.467466869489605408e+11 4.997129000000000000e+06 1.944508557924638367e+10 2.520351928912700195e+11
1.700000000000000135e-07 4.786532000000000000e+06 7.038703019957579346e+11 2.500170973386720886e+11 4.997070000000000000e+06 1.944748582692655945e+10 2.553829485666241455e+11
1.725000000000000160e-07 4.786505000000000000e+06 7.037834721754558105e+11 2.528324187922607117e+11 4.996997000000000000e+06 1.944986832744099426e+10 2.582766561031234131e+11
1.749999999999999921e-07 4.786486000000000000e+06 7.036998330600981445e+11 2.551450645048183289e+11 4.996940000000000000e+06 1.945245027141782379e+10 2.606664401662904663e+11
1.774999999999999946e-07 4.786464000000000000e+06 7.036190169908258057e+11 2.569201356001930237e+11 4.996867000000000000e+06 1.945501432917085648e+10 2.625152367832088318e+11
1.799999999999999971e-07 4.786437000000000000e+06 7.035427356721409912e+11 2.581202897087392273e+11 4.996805000000000000e+06 1.945774214102565002e+10 2.637834810774745483e+11
1.824999999999999997e-07 4.786423000000000000e+06 7.034754353705246582e+11 2.587276626081377258e+11 4.996759000000000000e+06 1.946061942275966644e+10 2.644511560067754211e+11
1.850000000000000022e-07 4.786388000000000000e+06 7.034141689038811035e+11 2.587326934461042786e+11 4.996703000000000000e+06 1.946351335714117050e+10 2.645076066464720154e+11
1.875000000000000048e-07 4.786373000000000000e+06 7.033659323793149414e+11 2.581314463201728516e+11 4.996639000000000000e+06 1.946638730452011108e+10 2.639482910461632996e+11
1.900000000000000073e-07 4.786350000000000000e+06 7.033265572081710205e+11 2.569334389886323853e+11 4.996568000000000000e+06 1.946931067388317108e+10 2.627820891155142212e+11
1.925000000000000098e-07 4.786327000000000000e+06 7.032993018702596436e+11 2.551598214417196960e+11 4.996484000000000000e+06 1.947217686376558304e+10 2.610289919129387512e+11
1.950000000000000124e-07 4.786314000000000000e+06 7.032854849975710449e+11 2.528412068787886658e+11 4.996420000000000000e+06 1.947528746832518768e+10 2.587188851510120544e+11
1.975000000000000149e-07 4.786292000000000000e+06 7.032818386342077637e+11 2.500133720112446289e+11 4.996356000000000000e+06 1.947846340705459213e+10 2.558871340602314148e+11
1.999999999999999909e-07 4.786273000000000000e+06 7.032926369113137207e+11 2.467288031594354248e+11 4.996266000000000000e+06 1.948148291625125122e+10 2.525860001925833130e+11
2.024999999999999935e-07 4.786257000000000000e+06 7.033159641191618652e+11 2.430419348282500610e+11 4.996178000000000000e+06 1.948456062646680450e+10 2.488702423441216431e+11
2.049999999999999960e-07 4.786242000000000000e+06 7.033512157412447510e+11 2.390129349757265625e+11 4.996107000000000000e+06 1.948789448688951874e+10 2.448013203381364136e+11
2.074999999999999986e-07 4.786232000000000000e+06 7.033962934363315430e+11 2.347111369582373657e+11 4.996033000000000000e+06 1.949114867622262192e+10 2.404507021412398071e+11
2.100000000000000011e-07 4.786217000000000000e+06 7.034484048603248291e+11 2.302101660115414734e+11 4.995966000000000000e+06 1.949455824837687683e+10 2.358935858519084167e+11
2.125000000000000036e-07 4.786204000000000000e+06 7.035057936022246094e+11 2.255870712581999512e+11 4.995896000000000000e+06 1.949790332458519363e+10 2.312082194906028137e+11
2.150000000000000062e-07 4.786185000000000000e+06 7.035688723480878906e+11 2.209202710819864502e+11 4.995808000000000000e+06 1.950119373814175415e+10 2.264745213377982483e+11
2.175000000000000087e-07 4.786173000000000000e+06 7.036354369337756348e+11 2.162876382803005981e+11 4.995729000000000000e+06 1.950451547153911591e+10 2.217723658155509338e+11
2.200000000000000112e-07 4.786158000000000000e+06 7.037010659495229492e+11 2.117709967799495850e+11 4.995649000000000000e+06 1.950787294567240143e+10 2.171858160071073608e+11
2.225000000000000138e-07 4.786152000000000000e+06 7.037661193220034180e+11 2.074453521054189758e+11 4.995579000000000000e+06 1.951139046084176636e+10 2.127921479628699341e+11
2.250000000000000163e-07 4.786139000000000000e+06 7.038264981134544678e+11 2.033843998608648682e+11 4.995494000000000000e+06 1.951484156013126373e+10 2.086667338727436523e+11
2.274999999999999924e-07 4.786123000000000000e+06 7.038818478356495361e+11 1.996588284360140076e+11 4.995427000000000000e+06 1.951839669289506912e+10 2.048812960560834351e+11
2.299999999999999949e-07 4.786118000000000000e+06 7.039329304992106934e+11 1.963324146610950928e+11 4.995351000000000000e+06 1.952192206882554626e+10 2.015009308259403687e+11
2.324999999999999974e-07 4.786106000000000000e+06 7.039758491131563721e+11 1.934625080146864014e+11 4.995283000000000000e+06 1.952556537640417480e+10 1.985841723236158142e+11
2.350000000000000000e-07 4.786098000000000000e+06 7.040122195424636230e+11 1.910987792620566101e+11 4.995203000000000000e+06 1.952913071974402237e+10 1.961808893927501221e+11
2.375000000000000025e-07 4.786085000000000000e+06 7.040403005415196533e+11 1.892815016714288940e+11 4.995119000000000000e+06 1.953273204655628204e+10 1.943305143030268250e+11
2.400000000000000315e-07 4.786077000000000000e+06 7.040627251545155029e+11 1.880421854822911682e+11 4.995043000000000000e+06 1.953642729431750488e+10 1.930646066837176514e+11
2.425000000000000076e-07 4.786067000000000000e+06 7.040782998360830078e+11 1.874040267473886108e+11 4.994964000000000000e+06 1.954010242399889755e+10 1.924062950940994873e+11
2.449999999999999836e-07 4.786058000000000000e+06 7.040881037170189209e+11 1.873749723783572998e+11 4.994883000000000000e+06 1.954378503627507401e+10 1.923624516513743286e+11
2.475000000000000126e-07 4.786048000000000000e+06 7.040923375060125732e+11 1.879567558106489563e+11 4.994795000000000000e+06 1.954746686783979797e+10 1.929338999167789307e+11
2.499999999999999887e-07 4.786029000000000000e+06 7.040891444680220947e+11 1.891403930230941772e+11 4.994713000000000000e+06 1.955125377412890625e+10 1.941108914758293457e+11
2.525000000000000177e-07 4.786013000000000000e+06 7.040846593288165283e+11 1.909035370870596313e+11 4.994630000000000000e+06 1.955512980099168396e+10 1.958705553682519226e+11
2.549999999999999938e-07 4.786007000000000000e+06 7.040786175146202393e+11 1.932119358566632080e+11 4.994555000000000000e+06 1.955907179193511200e+10 1.981793310262434692e+11
2.575000000000000228e-07 4.785986000000000000e+06 7.040661564781960449e+11 1.960271948523588562e+11 4.994478000000000000e+06 1.956308303654121399e+10 2.009983423910771790e+11
2.599999999999999988e-07 4.785962000000000000e+06 7.040494225897030029e+11 1.992966590443230591e+11 4.994383000000000000e+06 1.956695645751431274e+10 2.042736997347635803e+11
2.625000000000000278e-07 4.785937000000000000e+06 7.040330008965086670e+11 2.029640553405216064e+11 4.994295000000000000e+06 1.957093918590960312e+10 2.079489802618156128e+11
2.650000000000000039e-07 4.785884000000000000e+06 7.040075380896567383e+11 2.069639741395503235e+11 4.994225000000000000e+06 1.957509166042897415e+10 2.119590691818457031e+11
2.674999999999999800e-07 4.785827000000000000e+06 7.039788789897419434e+11 2.112203594942932129e+11 4.994132000000000000e+06 1.957919567364569473e+10 2.162283782673574524e+11
2.700000000000000090e-07 4.785738000000000000e+06 7.039429785482832031e+11 2.156592245573577576e+11 4.994048000000000000e+06 1.958333878949142838e+10 2.206832904437044983e+11
2.724999999999999850e-07 4.785634000000000000e+06 7.039007971337866211e+11 2.202011092154666443e+11 4.993956000000000000e+06 1.958749366330191803e+10 2.252444667168804321e+11
2.750000000000000140e-07 4.785521000000000000e+06 7.038515500999926758e+11 2.247659002463638306e+11 4.993886000000000000e+06 1.959188426005963898e+10 2.298325601055046692e+11
2.774999999999999901e-07 4.785405000000000000e+06 7.037990413723275146e+11 2.292721004943341980e+11 4.993782000000000000e+06 1.959614823839879990e+10 2.343660641325582275e+11
2.800000000000000191e-07 4.785254000000000000e+06 7.037377005306112061e+11 2.336414506033386230e+11 4.993692000000000000e+06 1.960050890428206635e+10 2.387664393129968872e+11
